1562064008893984:0:1:4:7:-23:-3:-5:-2:-0.185059:-0.932617:0.328613:-0.75:0.5:0.9375
1562064008944989:-1:-3:-1:10:15:-2:-5:-1:-0.183594:-0.944336:0.320312:-2.875:1.625:-1.75
1562064008992994:0:0:-3:-16:-11:-7:6:0:-0.197754:-0.947266:0.322754:-1:1.5:-0.5
1562064009041999:-3:-1:-1:-49:-14:1:-2:-3:-0.198242:-0.947266:0.320312:-3.125:0.625:0.8125
1562064009098005:-6:0:-1:4:10:-8:-9:-9:-0.188477:-0.95166:0.317871:-5.9375:-1:3.5
1562064009146010:-11:-11:-11:2:-22:-16:-10:-22:-0.18457:-0.986328:0.275391:-18.625:-2.5:11.3125
1562064009195014:0:1:3:21:22:6:-7:0:-0.220703:-1.00146:0.30127:-15.8125:-8.4375:20.875
1562064009245019:-3:-5:-9:-50:-8:-10:8:-1:-0.22998:-0.984863:0.308105:-9.875:-8.75:21.0625
1562064009293024:1:0:1:7:-9:6:-2:3:-0.233887:-0.924805:0.256836:-5.875:-9.5:18.375
1562064009342029:-1:0:0:-4:-3:-2:-3:-1:-0.240723:-0.899414:0.252441:2.25:-1.0625:12.5625
1562064009402035:-3:-5:-5:0:-7:-2:-2:-11:-0.25:-0.902832:0.257812:1.375:3.375:7.25
1562064009447040:-2:0:2:2:-8:-3:-2:-3:-0.254395:-0.916016:0.273438:-3.0625:4.5:2.4375
1562064009498045:-1:-1:0:-20:-7:2:-11:-12:-0.265137:-0.935059:0.282715:-2.8125:2.1875:-0.1875
1562064009556051:-1:-2:-9:26:13:0:-7:-5:-0.271973:-0.936035:0.28418:-1.875:1.8125:3
1562064009604055:-1:1:1:1:-4:-9:-11:4:-0.277832:-0.944824:0.282227:-6.5:3.3125:5.5625
1562064009655060:-2:-3:0:-8:-3:4:4:-4:-0.286621:-0.9375:0.277344:-4.4375:4.8125:7.0625
1562064009698065:-1:-3:-6:-51:-12:-5:-12:-9:-0.294434:-0.925781:0.266602:-2.8125:5.6875:7.375
1562064009747070:-1:0:5:21:15:-3:-5:-3:-0.29541:-0.935547:0.254883:-4.4375:6.0625:6.875
1562064009806076:-2:-1:-5:10:-7:-1:-9:-3:-0.312012:-0.935547:0.264648:-2.375:7.25:6.6875
1562064009854080:-1:0:6:3:7:0:-3:-3:-0.316895:-0.953613:0.268555:-3.9375:6.5:5.875
1562064009905085:-1:-1:-1:-15:-1:3:-7:-6:-0.321289:-0.941406:0.26123:0.625:1.875:5.0625
1562064009956091:0:-1:-3:8:14:-8:-8:-25:-0.317383:-0.944824:0.241699:-2.625:3.9375:6.0625
1562064010011096:0:-1:-2:-8:-2:1:2:3:-0.331543:-0.926758:0.245605:-2.4375:3.8125:6.375
1562064010057101:2:-3:-1:8:-5:2:-6:11:-0.331055:-0.939941:0.230469:-7.3125:2.5625:6.8125
1562064010107106:-1:-1:2:9:16:2:8:-14:-0.338867:-0.936035:0.239258:-3.8125:3.875:6.75
1562064010155110:-2:-2:-2:-15:2:0:-2:-6:-0.354492:-0.92627:0.239258:-5.25:3.75:6.0625
1562064010205115:2:0:1:15:-3:-3:-3:-1:-0.350586:-0.938477:0.222168:-2.75:4.125:4.9375
1562064010256121:0:-2:1:-5:-17:3:6:-4:-0.359375:-0.932129:0.220215:-1.1875:2.8125:2.5625
1562064010309126:1:0:-2:9:4:-2:11:16:-0.364258:-0.924316:0.217285:1.125:2.125:1.1875
1562064010358131:-1:1:2:4:0:3:-7:-2:-0.365723:-0.922852:0.21582:-0.4375:0.5625:1.0625
1562064010406136:-1:0:4:7:16:1:-7:-5:-0.37793:-0.925781:0.220703:-0.3125:1.3125:1.5625
1562064010458141:0:0:-3:-3:-1:-6:-5:-5:-0.361816:-0.935059:0.221191:-0.6875:0.0625:1.625
1562064010497145:0:-2:0:17:9:-3:-2:-22:-0.356934:-0.923828:0.211914:-3.125:-0.0625:1.375
1562064010557151:1:2:0:9:7:1:-3:-24:-0.362305:-0.934082:0.205566:-8.5:0.1875:4.6875
1562064010610156:-2:0:2:2:-5:0:7:0:-0.366211:-0.930664:0.208496:-4.6875:1.1875:6.25
1562064010658161:-3:-1:-2:2:-9:-5:-4:-7:-0.368652:-0.942871:0.1875:-6.0625:-0.375:6.5625
1562064010699165:1:1:2:3:8:5:-2:12:-0.37207:-0.930176:0.186523:-1.4375:-0.0625:7.5
1562064010758171:0:-1:-7:-31:-15:-7:-3:4:-0.398926:-0.914551:0.187988:-2.875:-3.4375:11.375
1562064010796175:-2:-1:1:8:0:-6:-2:4:-0.394043:-0.923828:0.1875:-2.8125:-2.625:12.25
1562064010856181:-1:-4:0:-3:1:-2:3:5:-0.34375:-0.940918:0.184082:-5.625:-4.8125:9.6875
1562064010910186:-1:-1:0:8:6:-1:-2:-16:-0.386719:-0.944336:0.212891:3:-6.4375:8.6875
1562064010957191:-1:0:-3:3:2:-4:-3:-13:-0.39502:-0.945801:0.219727:6.5:-5.6875:9.0625
1562064011007196:-1:0:1:-5:-5:4:-2:7:-0.394531:-0.913574:0.203613:9.375:-3.9375:9.4375
1562064011058201:-1:-3:-18:-2:3:-4:-4:1:-0.396973:-0.891602:0.191406:9.5625:-1.9375:9.75
1562064011113206:0:-1:1:-1:-3:0:-1:-1:-0.415527:-0.887207:0.224121:8.3125:1.375:7.5
1562064011160211:-1:-1:-1:-13:-18:-6:4:3:-0.435059:-0.883301:0.223633:7.6875:2.9375:6.8125
1562064011209216:-3:0:0:-4:12:-1:-6:-9:-0.467285:-0.879395:0.218262:7.5625:4.625:8.625
1562064011257221:0:0:1:9:0:-4:-7:-1:-0.483887:-0.866699:0.240723:7.25:7.1875:12.6875
1562064011317227:2:1:-7:4:15:15:5:22:-0.498047:-0.840332:0.255371:2.5625:8.875:15.1875
1562064011359231:-1:0:2:-2:4:-3:2:-1:-0.503906:-0.853027:0.264648:3.75:7.3125:14.375
1562064011412236:3:0:0:4:4:1:4:7:-0.534668:-0.817383:0.275391:6.5:3.3125:13.9375
1562064011460241:0:0:-5:3:-1:0:-1:4:-0.532227:-0.796875:0.285645:8.8125:1.3125:13.1875
1562064011520247:0:2:-1:7:-3:0:2:4:-0.543945:-0.789551:0.270508:11:-0.75:10.375
1562064011569252:-1:-2:0:-5:-5:-6:-7:-3:-0.554199:-0.81543:0.240723:0.625:-1.9375:6.875
1562064011620257:0:2:23:12:12:5:-2:-4:-0.557129:-0.816406:0.270996:12.5:-1.4375:-4.1875
1562064011659261:-1:2:2:-5:-4:1:0:10:-0.494141:-0.897461:0.273438:2.625:-3.125:1.0625
1562064011720267:0:-2:-4:7:4:-3:-4:-2:-0.563477:-0.830078:0.306641:5.0625:-1.5625:2.0625
1562064011760271:1:2:-1:2:-13:-2:1:-4:-0.554199:-0.759766:0.284668:6.8125:2.9375:1.5
1562064011820277:0:0:0:2:4:-2:5:3:-0.524902:-0.84668:0.293457:-3.5625:4.125:4.75
1562064011869282:-2:-4:7:0:-6:0:1:0:-0.51416:-0.823242:0.313477:-1:3:7.1875
1562064011922287:0:-1:-2:-16:-1:2:-3:-3:-0.526367:-0.834961:0.28125:-0.6875:0.125:7.375
1562064011959291:0:1:-1:-7:-12:-2:0:0:-0.505371:-0.811035:0.291992:4.5625:0.4375:6.875
1562064012021297:1:-1:0:-2:1:0:-1:-1:-0.53125:-0.813477:0.233887:-3.1875:1.625:5.1875
1562064012072302:1:2:1:7:-4:0:1:2:-0.570801:-0.806641:0.254883:0.25:2.1875:7.3125
1562064012120307:-1:-1:2:4:-4:5:0:2:-0.529785:-0.832031:0.267578:3:0.0625:5.75
1562064012170312:-2:0:-2:-7:9:3:-1:-2:-0.56543:-0.797363:0.309082:7.0625:-2.9375:5.5625
1562064012221317:0:-1:-3:-16:5:-6:-2:-1:-0.596191:-0.791016:0.305176:5.3125:-4.875:6.4375
1562064012266322:-1:-2:-5:-5:-5:0:1:5:-0.594727:-0.773926:0.291016:5.75:-2.4375:7.25
1562064012319327:0:-1:-2:-1:-4:-2:-1:-4:-0.601562:-0.771484:0.323242:2:-1.4375:7.8125
1562064012372332:-2:-2:-3:4:-7:-5:0:5:-0.592773:-0.752441:0.31543:1.4375:-2.0625:5.1875
1562064012424337:0:-1:3:-4:1:-5:-1:0:-0.583496:-0.762695:0.313965:0.5625:-2.0625:2.4375
1562064012462341:-2:-1:-1:-6:-5:-1:-2:2:-0.572266:-0.76709:0.294922:-1.125:-2.4375:-1.5
1562064012521347:0:1:1:2:-1:-1:-1:0:-0.573242:-0.777832:0.296387:-2.125:-1.9375:-5
1562064012574352:2:2:2:4:6:1:-1:0:-0.561523:-0.78418:0.303223:1.3125:-0.875:-6.5625
1562064012619357:0:-1:-3:3:-3:4:2:-1:-0.55957:-0.793457:0.314941:1.25:-0.9375:-6.5
1562064012673362:-2:-2:-1:2:-14:-6:-4:-2:-0.566406:-0.776855:0.326172:1.875:-0.8125:-3.1875
1562064012723367:0:1:0:-8:-12:0:0:-1:-0.570801:-0.79541:0.318359:-3.75:-0.8125:0
1562064012778373:0:0:0:4:22:0:-1:-3:-0.562988:-0.798828:0.3125:-0.6875:0.875:1.0625
1562064012821377:-1:-1:-3:-5:-3:-7:-4:2:-0.574707:-0.779297:0.316406:-2.0625:0.375:0.9375
1562064012875382:1:-2:1:-2:4:-2:0:3:-0.57959:-0.786621:0.31543:-1.625:-0.4375:1.125
1562064012922387:1:-1:3:8:-10:1:-1:-12:-0.577637:-0.787598:0.30957:-2.8125:-1:1.3125
1562064012972392:-1:0:-1:3:0:-1:-1:2:-0.577148:-0.777832:0.323242:-0.1875:-0.5:0.75
1562064013031398:0:-2:-2:-2:24:5:1:-6:-0.555176:-0.789551:0.318359:0.375:1:-0.9375
1562064013078403:-3:-3:-4:-26:-9:0:0:3:-0.560547:-0.788086:0.302246:-0.875:1.4375:-2.1875
1562064013122407:0:0:0:15:-1:0:2:0:-0.5625:-0.788086:0.299316:-0.25:1.625:-2.375
1562064013181413:-4:-3:-4:6:-9:-3:-2:-11:-0.563477:-0.79248:0.303223:-1.25:-0.125:-0.9375
1562064013223417:0:0:-4:-12:7:3:-1:-1:-0.555664:-0.792969:0.299805:-0.0625:0.375:-0.0625
1562064013282423:0:-1:-2:-8:-1:-3:-1:3:-0.557617:-0.793457:0.310059:-1.3125:0:0.125
1562064013324427:1:-1:1:4:9:3:4:11:-0.565918:-0.790527:0.310059:0.125:1.625:0.375
1562064013378433:-3:-1:-7:0:-24:-5:-2:-6:-0.577637:-0.78125:0.310059:-1.625:1.25:0.8125
1562064013422437:0:0:1:1:-22:-5:-3:-1:-0.577637:-0.787109:0.300781:-0.4375:0.5:1.25
1562064013481443:-1:-2:0:3:-1:-4:1:10:-0.57959:-0.780762:0.310547:-2:0.8125:0.5
1562064013534448:-2:-1:-1:10:-6:-3:-3:-11:-0.580078:-0.777832:0.306152:-3.375:0:0.375
1562064013586454:0:2:5:18:9:-1:0:4:-0.574219:-0.79248:0.303711:0.125:0.5625:-1.1875
1562064013627458:-3:-2:0:-16:7:1:1:-3:-0.566895:-0.786621:0.300293:-0.8125:-2.125:-1.25
1562064013684463:6:6:7:-14:-36:-26:-2:6:-0.567871:-0.779297:0.304199:-0.9375:0.5625:-1.6875
1562064013738469:-5:-5:-22:-8:16:17:-3:7:-0.580078:-0.753418:0.287109:-28.375:1.5625:4.5
1562064013785473:-6:-4:-24:-47:-10:12:0:8:-0.551758:-0.924316:0.3125:-40.375:4:3.875
1562064013835478:31:5:26:88:21:8:17:12:-0.552246:-0.786621:0.20166:13.75:-3.625:13.9375
1562064013886484:-1:4:4:-24:15:0:1:2:-0.628418:-0.615234:0.317383:14.3125:9.5625:7.3125
1562064013923487:-16:-4:-4:4:-1:8:-8:2:-0.553711:-0.791504:0.279785:-40:5.1875:3.3125
1562064013985493:-52:-18:-8:-2:-5:-47:-43:-126:-0.600098:-0.727539:0.272461:-23.3125:6.25:-5.125
1562064014037499:22:-3:-16:-66:-11:-9:27:13:-0.512695:-0.911621:0.280273:-69.5:-7.375:1.5625
1562064014085503:-44:-22:12:104:70:-13:6:3:-0.564941:-0.749512:0.144043:38.125:-13.125:21.4375
1562064014134508:38:-7:-3:2:-38:-13:7:3:-0.586426:-0.685059:0.424316:111.188:-3.875:13.6875
1562064014187514:9:-1:-4:-43:-43:-26:-1:17:-0.550293:-0.618652:0.344238:-89.9375:7.25:-1.25
1562064014239519:18:4:8:-1:21:-10:0:11:-0.710938:-0.936523:0.22998:-9.875:16.5:-22.9375
1562064014285523:-5:1:-9:18:-41:-2:-6:-16:-0.600586:-0.684082:0.216309:43:-9.5625:-1.8125
1562064014337529:-1:-1:-19:-7:-4:-13:1:5:-0.549805:-0.733887:0.308105:3.625:5.25:8.4375
1562064014388534:1:5:1:-21:1:-1:-9:-5:-0.560059:-0.812988:0.264648:-26.6875:-10.875:-0.5625
1562064014426538:1:-2:-14:-13:5:1:0:6:-0.578613:-0.841797:0.287598:17.25:-0.5625:-3.1875
1562064014486544:-2:-2:0:-23:-9:-6:8:6:-0.585938:-0.807129:0.258301:-15.8125:-7.125:-0.875
1562064014543549:-1:0:3:-7:1:0:2:-2:-0.575195:-0.817871:0.283691:0.8125:-4.75:1.25
1562064014584553:1:4:11:18:-14:3:-2:-3:-0.613281:-0.794922:0.308105:-1.8125:-4.625:0.75
1562064014644559:1:1:6:-1:8:3:-3:-2:0.000488281:-0.602539:0.960938:-3.4375:-1.4375:1.9375
1562064014688564:0:1:3:-4:17:-3:-2:-3:-0.0117188:-0.639648:1.08154:-6.1875:-2.4375:0.875
1562064014743569:0:-3:3:-2:-3:4:-1:-2:-0.245605:-0.745117:0.98877:2.25:-1.3125:-0.125
1562064014786574:0:1:12:4:-5:-8:-3:-5:-0.580566:-0.797363:0.297363:-0.6875:-1.75:-1
1562064014840579:-1:-2:-3:-2:-12:-4:-2:-5:-0.575195:-0.785645:0.290527:-0.6875:-2.125:-2.4375
1562064014887584:1:3:6:11:9:13:5:2:-0.81543:-0.723633:-0.203125:3:-0.875:-4.5625
1562064014944589:0:-1:-3:0:11:-2:1:-3:-0.689941:-0.791016:0.214844:2:5.0625:-5.0625
1562064014996595:0:-1:0:0:4:1:1:-4:-0.570312:-0.788574:0.289551:-0.125:-1:-0.75
1562064015043599:0:-4:1:-5:13:10:1:14:-0.572754:-0.791992:0.292969:-0.75:-1.3125:-0.9375
1562064015087604:1:2:3:21:1:2:-6:-10:-0.571289:-0.793457:0.291504:-1.875:-1.4375:-0.9375
1562064015146610:-3:0:10:-3:9:-1:-4:-2:-0.568848:-0.802734:0.291016:1.375:0.1875:-0.125
1562064015200615:1:1:-5:-10:-6:-4:2:9:-0.572754:-0.788086:0.28418:-1.8125:0.375:-0.3125
1562064015250620:-3:-5:-9:0:3:0:-3:1:-0.57373:-0.793945:0.291504:-0.1875:-0.875:-0.625
1562064015289624:1:-4:-14:-7:-4:1:0:-3:-0.573242:-0.785156:0.287598:1:-0.625:-1.1875
1562064015349630:0:1:5:-4:6:5:2:1:-0.567383:-0.796875:0.290039:-0.5:-1.0625:-0.9375
1562064015402635:0:1:15:-6:-7:-5:-5:-1:-0.56543:-0.799805:0.291992:-1.75:0:-0.5625
1562064015446640:1:-2:-2:-5:-1:1:4:5:-0.568848:-0.802246:0.288574:-0.25:-0.4375:0.0625
1562064015500645:0:-3:-6:-9:-2:-2:-3:0:-0.568359:-0.793457:0.290527:-0.25:0.625:-0.1875
1562064015550650:-1:-1:-6:-2:4:2:0:0:-0.566895:-0.79541:0.297363:0.875:1.3125:-0.4375
1562064015589654:-2:-4:-6:14:10:4:2:6:-0.574219:-0.794434:0.292969:0.5625:1:-0.1875
1562064015649660:0:2:-11:3:-5:-2:10:1:-0.569824:-0.79248:0.287598:-1.4375:0.1875:0.1875
1562064015705665:-1:-3:-1:-1:6:0:-4:-6:-0.571289:-0.787109:0.289551:-0.375:0.1875:0.6875
1562064015749670:-2:-1:-13:1:-8:2:0:8:-0.570312:-0.793457:0.289551:-0.0625:0.0625:0.125
1562064015809676:1:0:7:3:-3:-2:-4:4:-0.57373:-0.789551:0.286133:0.375:-2.25:0.0625
1562064015847680:2:3:13:0:7:6:3:10:-0.574219:-0.790527:0.282227:0.1875:-1.125:-0.1875
1562064015906686:1:-1:1:-2:-10:-6:3:10:-0.571777:-0.792969:0.291992:0.75:-2.25:-0.6875
1562064015957691:-2:-1:-5:2:-16:-4:-8:-10:-0.568359:-0.790039:0.293457:0.0625:-1.5:-1.625
1562064016009696:1:1:1:-4:-5:-3:1:-1:-0.564941:-0.797363:0.305176:-0.5625:-3.125:-1.375
1562064016065701:-1:-1:-1:1:3:2:-2:1:-0.560547:-0.793945:0.294922:-0.8125:-2.1875:-0.625
1562064016110706:1:-1:-6:0:3:3:1:2:-0.557129:-0.791992:0.295898:0.1875:-0.9375:-0.5625
1562064016151710:-1:0:-4:11:3:-4:-4:0:-0.562988:-0.794922:0.300781:-1.375:-0.75:-1.4375
1562064016204715:0:-1:0:4:15:0:-2:0:-0.562012:-0.802734:0.30127:-0.4375:-0.3125:-0.6875
1562064016248720:0:-1:-12:2:10:2:3:5:-0.562988:-0.791504:0.29834:-0.75:-0.375:-0.375
1562064016309726:0:-2:-1:-4:-12:-3:0:1:-0.561035:-0.800293:0.297852:0.5:-0.1875:0.3125
1562064016349730:3:3:-7:11:12:2:7:7:-0.567383:-0.788574:0.313477:0.875:-0.0625:0.3125
1562064016410736:0:1:-1:0:4:-2:-1:2:-0.557617:-0.794922:0.289551:-0.0625:-0.5625:-0.625
1562064016452740:-4:-1:9:-5:6:6:-9:-23:-0.563477:-0.789062:0.298828:-1.25:-0.625:-2.125
1562064016511746:-1:0:1:0:-6:-1:-3:2:-0.568848:-0.799316:0.296387:-0.25:-1.0625:-1.4375
1562064016548750:-1:0:4:7:5:3:-3:-1:-0.556641:-0.801758:0.295898:-0.9375:-1.25:-1.0625
1562064016610756:-6:-6:-11:-13:-9:0:-2:1:-0.551758:-0.80127:0.308594:0.5625:-0.6875:-1.625
1562064016650760:0:2:0:-9:-10:2:-1:3:-0.750488:-0.770508:0.132812:4.5:1.6875:-4.25
1562064016710766:0:1:3:10:6:4:-3:-1:0.180664:-0.719238:0.370117:0.375:-5.25:0.75
1562064016752770:-3:-2:-10:-5:1:1:-5:-6:-0.614258:-0.735352:-0.0917969:5.5625:-1.625:-5.625
1562064016811776:3:1:-3:3:-4:-4:-9:3:-0.274902:-0.711426:0.0742188:4.875:-2.5625:-4.4375
1562064016864781:-1:-2:-5:-1:6:-3:1:9:0.244141:-0.762695:0.677246:-2.875:-4.25:-0.3125
1562064016908786:0:-4:3:0:6:-1:3:2:0.0361328:-0.825684:0.783691:-6:-3.625:2.6875
1562064016965791:-1:2:4:-4:8:2:-2:-11:-0.524902:-0.789062:0.303223:-2.1875:-0.5:-2.3125
1562064017014796:-3:-4:-3:0:-2:2:-2:2:-0.546875:-0.799316:0.307129:-0.5625:-2.1875:-1.4375
1562064017066802:-1:0:4:5:-2:-7:-3:-1:-0.545898:-0.802246:0.303223:-1.25:-1:-1.6875
1562064017126808:-1:-3:1:-5:-2:0:-5:2:-0.546875:-0.805176:0.304199:-0.5625:-1:-1.375
1562064017163811:-2:-1:-5:6:-9:-3:1:6:-0.544434:-0.806641:0.301758:-0.6875:-0.5:-1.125
1562064017212816:2:-1:-15:4:11:2:5:13:-0.540527:-0.798828:0.307129:0.0625:0.125:0.0625
1562064017270822:1:2:3:-3:3:7:5:5:-0.547363:-0.810547:0.304688:-0.6875:0.25:0.0625
1562064017313826:2:4:5:2:6:4:3:6:-0.537598:-0.810059:0.309082:-0.6875:0.4375:0.1875
1562064017366832:-1:-1:-1:-5:-8:-7:-1:2:-0.543457:-0.800293:0.306152:-0.3125:0.625:-0.0625
1562064017412836:-2:-1:13:-4:-2:0:3:-3:-0.549805:-0.802246:0.303711:-0.875:0.1875:0.75
1562064017463841:-1:-3:-4:2:0:-3:3:10:-0.550781:-0.804688:0.297363:-0.1875:0.5:0.1875
1562064017511846:1:-6:-25:4:1:-5:-4:9:-0.550293:-0.802246:0.302734:-0.6875:-0.375:-0.4375
1562064017569852:1:3:16:-4:-4:-3:1:4:-0.548828:-0.797363:0.299316:-0.1875:0.125:-0.625
1562064017614856:-3:1:2:-5:0:9:6:-4:-0.545898:-0.811523:0.300293:-1.0625:-0.4375:-1.0625
1562064017675862:0:-1:-3:3:-9:2:0:4:-0.547852:-0.806641:0.29834:0.3125:0:-0.5625
1562064017711866:1:0:2:0:4:-4:-2:1:-0.544434:-0.806641:0.305176:-0.9375:0.375:-0.4375
1562064017774872:-2:0:-3:5:0:2:-3:-5:-0.54834:-0.802246:0.302246:-0.6875:-0.125:-0.5625
1562064017812876:1:0:0:-1:2:-3:4:8:-0.548828:-0.802734:0.299805:-0.125:-0.0625:-0.375
1562064017868882:2:1:4:0:-3:-4:4:6:-0.54541:-0.80957:0.297852:-0.875:0.1875:0
1562064017914886:0:-3:-3:-9:6:-2:0:9:-0.546387:-0.807129:0.29834:-0.0625:0.125:0.4375
1562064017974892:-1:0:0:4:13:-1:-4:-2:-0.54834:-0.803711:0.302734:0.25:0.0625:0.5
1562064018026898:-3:-1:-3:-6:-12:1:-3:-2:-0.545898:-0.803711:0.304199:-0.875:0.75:0.0625
1562064018074902:-2:-2:4:-1:3:7:1:-3:-0.547852:-0.802734:0.300781:-0.25:0.1875:0.375
1562064018116907:-1:-1:-4:-1:1:-5:9:0:-0.54834:-0.810547:0.302734:-1.375:0.125:-0.5625
1562064018176913:-1:-2:-1:9:-7:-8:-4:7:-0.545898:-0.804199:0.306152:-0.625:0.0625:-0.5
1562064018214916:-11:-1:0:-14:11:6:6:-3:-0.552734:-0.808594:0.287109:-2.375:0.6875:0.1875
1562064018274922:-26:0:-12:92:-11:-15:-7:0:-0.562012:-0.847168:0.265625:-3.3125:-8.25:7
1562064018326928:-2:-5:-2:20:-38:1:1:-3:-0.594727:-0.705566:0.307129:-16.125:0.4375:3.5625
1562064018374932:-33:9:-15:-15:-12:-27:-31:-113:-0.525391:-0.80127:0.370605:-8.5625:6.9375:6.875
1562064018416937:10:6:-6:-17:-29:-32:8:37:-0.594238:-0.916992:0.117188:-60.25:-11.625:-15.8125
1562064018476943:-34:-23:-1:64:-9:-4:2:11:-0.630859:-0.901367:0.182129:37.8125:-12.9375:6.125
1562064018529948:-11:-1:8:-13:51:20:-12:27:-0.605957:-0.639648:0.324707:76:-0.5625:20.1875
1562064018574952:-11:-1:-1:-4:63:86:24:14:-0.577148:-0.724609:0.371094:-55.4375:9:8.8125
1562064018633958:-9:12:11:58:85:41:65:-21:-0.664551:-0.668945:0.12207:-65.6875:48.1875:-21.9375
1562064018675962:93:10:-9:5:10:19:-39:4:-0.516113:-0.688477:0.0957031:88.3125:-32.3125:18.625
1562064018732968:17:3:7:-20:-2:-12:14:3:-0.642578:-0.661133:0.454102:83:4.9375:6.0625
1562064018776973:-30:-10:-10:-48:-85:9:-26:-66:-0.631348:-0.696289:0.350586:-61.625:6.625:19.75
1562064018829978:-9:1:-10:25:25:2:5:-18:-0.644531:-0.950195:0.172363:-42.5625:11.375:-22
1562064018873982:-3:0:-7:-21:-4:-10:3:3:-0.592773:-0.735352:0.217773:20.125:-15.5625:-5.9375
1562064018933988:-3:-4:-22:-14:-8:-8:0:-3:-0.556152:-0.827637:0.297852:8.875:3.3125:0.3125
1562064018980993:5:5:-15:6:16:8:3:2:-0.549805:-0.816406:0.292969:1.5:-4.125:2.75
1562064019031998:0:0:4:1:-8:-4:-3:13:-0.554199:-0.795898:0.282227:2:-0.3125:2.0625
1562064019077003:-1:1:1:1:-11:-1:0:0:-0.54248:-0.807617:0.285156:-2:-2.25:-0.6875
1562064019129008:0:1:3:26:4:4:5:5:-0.564453:-0.818359:0.282227:-0.4375:0.125:-0.1875
1562064019197015:-4:-4:-3:-15:-20:-2:-6:-6:-0.566406:-0.799316:0.268555:-4.25:-2:1.6875
1562064019249020:2:2:6:9:5:-3:-4:-2:-0.894531:-0.992188:0.167969:2.625:-0.1875:0.25
1562064019281023:-2:-5:-6:16:15:3:3:-12:-0.977539:-1.00195:-0.00488281:3.8125:0.125:-0.75
1562064019341029:-2:0:-5:5:-10:-5:-3:2:-0.648926:-0.689941:0.0932617:-1:0.6875:-0.8125
1562064019393034:0:-2:-6:8:11:5:1:-1:-0.602051:-0.797363:0.277344:1.6875:-1.1875:-1.75
1562064019437039:-2:-1:11:-1:13:-7:-4:-8:-0.549316:-0.811035:0.287598:-2.4375:-0.625:0
1562064019490044:-4:-2:-5:-8:-17:-4:-6:-5:-1.02686:-0.80127:-0.141602:7.5625:5.5625:-5.3125
1562064019537049:-1:-3:-25:1:3:0:-1:2:-0.630371:-0.799316:0.272461:0.125:-0.1875:-1.9375
1562064019580053:3:5:7:6:11:2:2:-4:-0.548828:-0.813477:0.29248:-2.1875:0.3125:0.3125
1562064019640059:-2:-3:-6:-8:-8:-3:-1:3:-0.561035:-0.788574:0.277832:-1.4375:-1.375:-0.375
1562064019692064:-1:-3:-2:-2:5:-2:0:6:-0.548828:-0.816406:0.280273:0.25:-1.1875:-0.625
1562064019737069:3:-2:-20:-6:0:7:5:-3:-0.556152:-0.804199:0.289062:1:0.0625:-0.8125
1562064019789074:0:1:2:2:3:8:-1:-9:-0.557617:-0.817383:0.283203:-1.0625:-1:-0.75
1562064019843079:1:-4:-16:-2:-20:-3:-2:2:-0.555176:-0.804688:0.29248:0.375:-0.3125:0.1875
1562064019895084:-3:0:-3:-8:2:0:-3:-3:-0.553711:-0.811523:0.280273:0.3125:0.375:0.5
1562064019939089:2:5:-5:1:-2:0:10:13:-0.555664:-0.809082:0.289551:0.5:0.125:0.1875
1562064019999095:-2:0:-1:-7:-6:-4:-6:1:-0.556152:-0.807129:0.288574:-1.625:0.1875:0.5
1562064020040099:-1:-1:-2:0:12:14:6:0:-0.557617:-0.804199:0.282715:-1.125:-0.9375:-0.125
1562064020100105:1:1:0:1:-2:-11:0:14:-0.54541:-0.807129:0.279785:-1.4375:0.0625:0.125
1562064020142109:-2:0:3:0:-15:-1:-1:-1:-0.557617:-0.799316:0.285645:0.4375:-0.1875:-0.625
1562064020195114:1:-3:-6:-1:4:-5:-3:6:-0.557129:-0.810059:0.282227:-0.3125:-0.625:-1.25
1562064020239119:1:0:-6:2:-5:-5:6:13:-0.554199:-0.802246:0.28418:0.875:-0.5625:-1
1562064020300125:0:-3:-10:-6:10:0:-1:-3:-0.553223:-0.805664:0.279785:0.4375:-0.625:-1.75
1562064020340129:-2:-1:-6:-8:-11:1:-4:-1:-0.550293:-0.81543:0.287109:-0.125:-1.0625:-1.5625
1562064020400135:0:-1:-1:1:4:5:-2:-3:-0.550293:-0.805176:0.284668:0.5625:-0.875:-1.625
1562064020443139:-1:0:-3:4:-5:-4:0:1:-0.550293:-0.816406:0.291504:-1:-1.125:-1.1875
1562064020502145:0:-2:-4:-1:-6:-4:0:-17:-0.546875:-0.814941:0.283691:0.9375:-1.4375:-0.8125
1562064020540149:-1:-3:1:-2:1:2:0:0:-0.545898:-0.8125:0.298828:-0.5625:-0.875:-0.4375
1562064020600155:-2:-2:-3:1:-4:-1:-4:-3:-0.543457:-0.812012:0.297363:-1.1875:-0.6875:-0.5625
1562064020652160:1:2:2:5:15:2:5:-6:-0.547363:-0.809082:0.296387:-0.75:0.375:0.5625
1562064020705165:2:0:-3:-4:-2:-2:3:6:-0.544434:-0.813477:0.291016:0.6875:0.75:0.8125
1562064020757171:-2:1:-1:-1:-8:-6:-5:-6:-0.551758:-0.804688:0.289551:-0.9375:0.375:0.0625
1562064020802175:2:3:6:0:7:-3:-1:5:-0.552246:-0.802246:0.286133:0:-0.375:-0.6875
1562064020854180:-2:-1:-4:-2:-5:-3:-4:2:-0.543945:-0.812012:0.287109:-0.25:-0.375:-0.625
1562064020902185:-2:-3:-4:1:5:2:-2:-3:-0.544922:-0.807129:0.28418:-0.375:-0.625:-0.25
1562064020945189:-3:-8:-16:-9:1:2:-3:-8:-0.544434:-0.81543:0.292969:0.5:0.1875:-0.1875
1562064021006195:0:-3:-2:0:10:3:9:-2:-0.547363:-0.805176:0.295898:-0.5:-0.1875:-0.6875
1562064021056200:1:0:11:4:5:5:0:4:-0.548828:-0.806152:0.29248:0.0625:-0.5:-0.75
1562064021103205:-1:-3:-3:4:3:1:-5:-5:-0.540527:-0.818848:0.290039:0.3125:-0.375:-0.5625
1562064021155210:1:4:14:12:14:6:3:-1:-0.558594:-0.82666:0.278809:-0.75:-1.375:0.1875
1562064021202215:4:3:11:-21:-1:0:5:7:-0.545898:-0.795898:0.307129:4.1875:-0.5625:-0.25
1562064021245219:0:1:-2:19:6:0:-1:-1:-0.632324:-0.825684:0.234863:-0.8125:-1.8125:0
1562064021305225:0:5:2:-27:-1:1:-7:-2:0.0395508:-0.790039:0.718262:0.5:-3.625:5.125
1562064021357231:-2:-3:-2:-5:-15:-3:-2:-4:0.257812:-0.736816:0.475098:-0.25:-3.375:-1.5
1562064021403235:1:-1:-8:6:-3:-5:-8:-16:0.257324:-0.744141:0.503418:0.6875:-4.8125:-2
1562064021463241:1:0:-3:-16:-4:6:-3:-17:0.285645:-0.75:0.546875:-4.4375:-3.625:-0.3125
1562064021502245:-1:-4:-1:-5:0:-4:-5:-7:0.205566:-0.73291:0.398926:2.9375:-6.125:-0.9375
1562064021562251:-1:-2:6:24:8:-1:-2:-14:-0.544922:-0.800781:0.276367:0.4375:6.4375:-6.4375
1562064021606255:-2:-2:0:-6:4:-1:4:7:-0.541504:-0.816406:0.302734:-1:0.5:-0.375
1562064021657261:1:2:-3:9:1:0:5:7:-0.534668:-0.801758:0.30127:-0.5625:0.5:0
1562064021717267:1:4:-1:-32:-4:4:2:8:-0.544434:-0.81543:0.300293:-0.75:1.5625:-0.0625
1562064021762271:0:0:0:9:13:1:0:2:-0.538574:-0.813477:0.292969:-0.9375:0.8125:0.25
1562064021807276:1:0:-1:-7:5:7:3:-3:-0.54248:-0.804688:0.290039:-0.3125:0.5:0.0625
1562064021867282:1:-2:2:0:2:-1:-5:-2:-0.54248:-0.807617:0.297363:-0.5625:0.4375:-0.25
1562064021905285:-3:-8:-21:20:-1:-6:-2:2:-0.543945:-0.810547:0.292969:-0.9375:-0.5:-0.625
1562064021965291:-2:0:1:24:6:2:-12:-29:-0.543457:-0.808594:0.296387:0.1875:0.1875:-1.1875
1562064022017297:1:2:-4:-4:-5:-4:-3:2:-0.541504:-0.814453:0.297363:-0.125:-0.5625:-1.0625
1562064022065301:-1:1:-7:-12:1:3:-3:-4:-0.535645:-0.813965:0.296387:-1.3125:-0.9375:-1.5
1562064022108306:0:-1:-2:-27:12:2:-2:2:-0.537598:-0.804688:0.289551:-0.125:-0.9375:-2.3125
1562064022167312:-2:-3:-8:29:-9:-6:-5:0:-0.533691:-0.813477:0.296387:0.1875:-1.4375:-1.875
1562064022206315:0:-2:-3:7:-2:-2:0:2:-0.532227:-0.812988:0.300293:1.0625:-0.625:-1.4375
1562064022266321:-4:-5:-1:-6:-2:-4:-11:-2:-0.529297:-0.822754:0.29834:0.125:-1.125:-0.0625
1562064022317327:2:0:-2:-14:-1:1:2:8:-0.522461:-0.820312:0.304199:-0.125:0.5:-0.25
1562064022365331:2:5:10:16:-4:-2:-5:-1:-0.536133:-0.806641:0.304199:-1.1875:0.9375:0.3125
1562064022407336:-2:0:0:1:-1:2:13:1:-0.539551:-0.813965:0.305176:-0.125:1:0.4375
1562064022471342:-2:-4:2:4:3:-4:6:1:-0.536133:-0.812988:0.297852:-0.9375:0.9375:0.3125
1562064022519347:-1:-3:-6:-14:-2:-1:1:-10:-0.540039:-0.808105:0.296387:-0.0625:0.0625:0.4375
1562064022569352:1:0:-2:-1:-3:-1:-7:-1:-0.535645:-0.808594:0.300293:-0.4375:0.125:-0.4375
1562064022617357:2:-1:2:-7:-5:5:1:2:-0.540527:-0.813965:0.302246:-0.8125:-0.5:-0.6875
1562064022673362:0:2:7:40:12:2:0:-1:-0.532715:-0.813477:0.295898:0.3125:-0.5:-0.4375
1562064022710366:0:1:-2:-16:0:1:8:12:-0.533691:-0.832031:0.278809:-2.0625:1.3125:-0.125
1562064022770372:-7:-5:0:-26:2:0:-8:2:-0.521484:-0.82666:0.301758:14.25:-2.8125:3.5625
1562064022819377:8:9:15:16:37:9:18:-1:-0.541504:-0.814941:0.293457:0.0625:-8.8125:6.5
1562064022871382:-6:1:-4:2:16:7:2:0:-0.499512:-0.854492:0.355469:-2.9375:3.6875:3.625
1562064022913386:1:-3:-1:-28:-50:-5:3:4:-0.533691:-0.775879:0.335449:8.5:4.5625:1.3125
1562064022973392:-13:3:6:38:31:-1:2:6:-0.548828:-0.827148:0.294434:-5.5625:3.125:2
1562064023010396:3:4:-6:-47:22:-3:7:12:-0.578125:-0.74707:0.276855:0.8125:-2.3125:1.4375
1562064023069402:1:2:12:92:27:11:12:0:-0.550781:-0.833008:0.314453:-4.4375:3.1875:4.125
1562064023119407:-1:3:14:-22:-24:1:-7:2:-0.560547:-0.782227:0.269531:-9.25:-3.6875:1.625
1562064023170412:13:-2:-2:-1:-17:0:0:-2:-0.543945:-0.8125:0.310059:0.5:2.125:-3.1875
1562064023226417:5:0:-9:-44:-1:9:3:3:-0.554199:-0.793945:0.290039:-0.625:-0.5625:-2.6875
1562064023273422:-2:-3:-5:19:21:9:-9:-1:-0.547363:-0.820801:0.317383:2.1875:0.4375:-1.5625
1562064023322427:35:14:8:28:46:-35:15:104:-0.537109:-0.792969:0.302246:-4.6875:1.9375:0.5
1562064023370432:-23:-19:2:-8:-30:25:54:-55:-0.571777:-0.784668:0.269531:-29.25:2.4375:-3.4375
1562064023419437:9:-4:-6:-91:2:26:-32:-20:-0.595215:-0.808594:-0.0336914:-20.375:0.25:7.25
1562064023475442:6:3:25:127:-14:-18:-12:-7:-0.573242:-0.8125:0.24707:35.875:9.4375:24
1562064023525447:-19:-3:5:101:37:8:4:-8:-0.554199:-0.67627:0.391602:57.25:-1.3125:6.8125
1562064023572452:8:5:0:-15:51:34:0:45:-0.560059:-0.69873:0.227051:-68.75:-1.125:-9.6875
1562064023622457:-1:7:6:70:5:27:7:19:-0.644043:-0.70166:0.251953:-9:45.0625:-18.375
1562064023669462:-20:-11:-14:-6:-33:-16:-5:-29:-0.555664:-1.11963:0.0317383:21.0625:-25:14
1562064023728468:-38:6:1:-61:-1:9:-10:-28:-0.629395:-0.667969:0.291504:116.188:-6.125:9.3125
1562064023775472:0:0:3:-13:24:-6:-2:-16:-0.639648:-0.739746:0.30127:-62.3125:14.25:0.375
1562064023824477:7:-1:-1:-77:-15:1:-5:-10:-0.44043:-0.947266:0.243652:-17.4375:-6.25:-9.8125
1562064023872482:1:0:2:22:13:1:3:-1:-0.567871:-0.782715:0.209961:3.875:-1:-8.875
1562064023921487:-3:-1:-4:16:-2:2:5:-2:-0.560059:-0.797852:0.228027:0.1875:-11.5:0.0625
1562064023973492:0:-3:-7:-11:4:-11:-2:-1:-0.546875:-0.818359:0.277832:7.5:-0.875:0.75
1562064024028498:-2:1:-7:-3:6:3:-2:4:-0.538574:-0.828613:0.291992:-4.3125:-4.4375:1.5
1562064024075502:0:1:0:0:-4:2:-4:2:-0.535645:-0.829102:0.278809:-0.375:-0.625:0.9375
1562064024124507:0:-2:-10:-13:6:3:-1:6:-0.542969:-0.82373:0.27832:1.6875:-1:1
1562064024195514:-2:0:18:-3:4:-1:-2:-18:-0.518066:-0.814453:0.401855:-3.625:5.125:0.4375
1562064024232518:-2:-1:-6:-19:-1:-6:2:0:-0.731445:-0.963867:0.259277:5.875:0.0625:1.1875
1562064024281523:-1:1:-2:-8:-12:0:8:11:-0.618652:-0.927246:0.458984:3.8125:0.375:-0.875
1562064024333528:-2:-5:3:-19:-2:1:0:-1:-0.63623:-0.72168:-0.0380859:-2.9375:-3.0625:-1.8125
1562064024388534:-2:0:-2:-6:-1:0:8:7:-0.543945:-0.803223:0.282227:-0.3125:-3.6875:-4.25
1562064024435538:0:1:-3:-5:-2:1:0:-5:-0.540039:-0.821289:0.280273:-1.4375:-1.25:-1.625
1562064024484543:-1:-2:-10:12:3:0:-9:2:-0.239258:-0.80127:0.395508:-2.4375:-3.25:1.75
1562064024533548:-3:-3:-4:5:7:0:-3:-5:-0.434082:-0.794922:0.239258:3:0.1875:-1.4375
1562064024592554:-1:-1:-2:-7:-17:-6:-3:-3:-0.546875:-0.807129:0.273926:-0.5625:0.125:0.0625
1562064024634558:-1:0:0:-1:-3:2:-2:-1:-0.54541:-0.816895:0.279785:-1.0625:-0.75:0.3125
1562064024694564:-1:-3:-6:0:2:3:1:5:-0.54834:-0.814453:0.286621:0.125:0:-0.375
1562064024735568:-4:-2:-8:-22:-2:-1:3:2:-0.546387:-0.815918:0.273438:-0.9375:-0.4375:-0.4375
1562064024784573:1:-2:-4:-10:3:-1:-2:-8:-0.548828:-0.806152:0.288574:-0.9375:0.75:-0.375
1562064024837579:0:-3:-2:-15:-5:-1:6:7:-0.552246:-0.816895:0.271973:-1.5:0.4375:-0.625
1562064024891584:-1:-3:2:-9:-3:-1:-2:-1:-0.544434:-0.813477:0.277344:1.0625:0.875:-1.3125
1562064024934588:0:-1:-2:-9:4:1:4:10:-0.55127:-0.817383:0.266602:0.3125:-0.0625:-1.6875
1562064024994594:0:1:3:0:-2:-4:2:-1:-0.544922:-0.812988:0.274414:-0.125:-3.375:-2.4375
1562064025035598:1:-1:2:0:-6:1:5:11:-0.533691:-0.822266:0.283691:-1.0625:-2:-2.6875
1562064025094604:-1:-2:-2:-1:0:0:-8:0:-0.536621:-0.823242:0.292969:-0.625:-1.8125:-1.4375
1562064025144609:-2:-2:-2:3:0:2:-5:-24:-0.529297:-0.82666:0.283691:-1.375:-0.25:0.5625
1562064025195614:0:1:1:1:0:-1:0:-3:-0.535156:-0.820312:0.284668:0.5:1.625:2.1875
1562064025234618:-1:-1:9:2:7:2:0:-1:-0.539062:-0.821777:0.283691:-0.125:1.8125:3.125
1562064025294624:0:-1:1:1:6:-1:-2:-6:-0.543945:-0.814453:0.273438:0.125:3.25:3.125
1562064025347630:0:-1:1:1:5:3:1:9:-0.550781:-0.810547:0.283203:0.3125:3.0625:2.875
1562064025395634:-1:-1:-10:-1:5:1:5:-1:-0.555664:-0.8125:0.271484:1.625:2.9375:2.875
1562064025444639:0:0:2:2:7:-5:3:3:-0.555664:-0.807129:0.277832:-0.875:1.875:2.375
1562064025497645:-1:-3:-6:7:-9:-5:-7:-5:-0.556641:-0.807617:0.280762:-0.1875:1.0625:1.5
1562064025550650:-1:3:-3:0:13:3:-4:3:-0.560547:-0.805664:0.274902:-1:0.0625:0.9375
1562064025595654:-1:3:-1:0:6:0:0:1:-0.558594:-0.808105:0.281738:-1.375:-0.8125:-0.625
1562064025648660:-3:0:-1:-1:3:2:-8:-5:-0.559082:-0.807129:0.270508:-0.9375:-1:-1.5
1562064025698665:1:0:-1:3:15:3:4:4:-0.563965:-0.806641:0.273438:-0.4375:-1.375:-2.125
1562064025737669:-3:-8:-6:-3:1:-2:1:7:-0.556641:-0.811523:0.26709:-0.4375:-2:-2.875
1562064025797675:-1:2:-2:-2:-7:-3:-4:2:-0.550293:-0.811035:0.277832:-0.375:-1.8125:-2.1875
1562064025849680:-2:0:-1:-4:11:3:0:-14:-0.544434:-0.818359:0.275391:0.125:-1.75:-2.0625
1562064025894684:1:-2:-7:1:-9:-3:-5:-4:-0.54541:-0.815918:0.282715:0.5625:-1.25:-2.125
1562064025954690:0:0:3:2:20:4:3:2:-0.550293:-0.813965:0.277832:0.1875:-1.3125:-2.5625
1562064025998695:-2:-1:-9:-2:-8:-6:-11:4:-0.540039:-0.818848:0.276855:-0.25:-1:-3.0625
1562064026052700:1:0:-1:-4:7:2:2:-4:-0.542969:-0.814941:0.27832:0.1875:-1.1875:-3.375
1562064026097705:0:0:-1:-2:-4:-1:2:11:-0.54541:-0.822754:0.272949:0.4375:-1.5625:-2.625
1562064026157711:-1:0:0:-1:2:-3:0:0:-0.528809:-0.828125:0.277832:-1.0625:-1.9375:-1.3125
1562064026196714:0:-2:-7:-5:-7:-2:-1:-3:-0.52832:-0.824707:0.29248:-0.6875:-1.3125:-0.1875
1562064026247720:0:-1:7:-2:-5:1:-1:3:-0.531738:-0.820312:0.291992:-1.375:-0.875:-0.1875
1562064026297725:-1:0:-3:-2:-8:-3:0:-3:-0.804199:-0.888184:0.530273:-4.1875:2.5:0.875
1562064026352730:0:5:6:3:4:1:-3:-13:0.29541:-0.761719:0.466309:-1.375:-3:0.75
1562064026396734:-1:-1:-4:-1:-2:-3:0:-2:0.25:-0.75:0.451172:0:-2.5625:-0.3125
1562064026457741:0:-1:6:-8:-6:-5:-3:1:0.277344:-0.765625:0.5:-1.25:-3:0.25
1562064026509746:0:0:3:2:-6:-3:-5:-6:0.264648:-0.749512:0.442383:-1.375:-3.1875:-0.625
1562064026556750:0:-3:-10:-2:-1:-3:0:2:-0.477539:-0.825195:0.290527:0.1875:7.625:-4.625
1562064026599755:-1:0:1:-3:2:1:-1:-15:-0.550293:-0.825195:0.276367:-1.3125:0.5:-0.9375
1562064026659761:-1:-1:10:5:10:0:1:5:-0.533203:-0.823242:0.270508:-0.75:0.5625:-1
1562064026697765:-1:-5:-2:-2:2:4:0:3:-0.534668:-0.828613:0.274414:-0.25:0.25:-0.8125
1562064026757771:-1:-1:-2:3:7:-3:-6:-10:-0.535645:-0.82666:0.273926:-0.5:0.25:-0.5625
1562064026800775:-2:-3:-3:-6:-14:-3:-2:-2:-0.535156:-0.819824:0.275879:0.625:0.125:-0.625
1562064026860781:-1:0:4:3:-1:0:1:3:-0.533691:-0.824707:0.270996:-0.1875:0:-0.9375
1562064026900785:1:2:0:1:-4:-4:2:9:-0.535645:-0.820801:0.274414:-0.125:0.3125:-0.5625
1562064026959791:-1:0:13:-6:7:10:3:2:-0.539062:-0.82373:0.272461:0.375:0.8125:-0.5
1562064027012796:0:-1:0:12:-2:-2:-1:-4:-0.532227:-0.819336:0.276855:-0.125:-0.0625:-0.1875
1562064027060801:-1:-1:-7:-1:-5:-3:5:-3:-0.527832:-0.833496:0.272461:0.3125:1.25:0.5625
1562064027109806:-3:-2:-4:-1:0:-1:7:8:-0.532227:-0.816406:0.275879:-0.0625:0.75:0.9375
1562064027160811:0:3:11:3:2:-1:-3:-2:-0.53418:-0.828125:0.274414:0.1875:1.3125:1.0625
1562064027199815:-2:-1:-6:-1:0:-1:-6:-20:-0.538086:-0.817383:0.272461:0.125:1.3125:1.1875
1562064027259821:-1:-1:-4:-1:-4:-9:-3:-2:-0.543945:-0.824707:0.271973:0.4375:1.25:1.375
1562064027313826:0:-3:-7:-1:0:-6:-12:-4:-0.547363:-0.821289:0.269043:-0.3125:1:1.25
1562064027361831:1:-2:0:3:9:5:1:2:-0.54541:-0.816895:0.277832:-0.25:1:1.25
1562064027409836:0:-1:3:-2:-3:-1:6:10:-0.549316:-0.812012:0.275879:-0.6875:0.3125:0.8125
1562064027461841:0:-2:-1:-8:-15:-5:-1:-9:-0.547363:-0.815918:0.275391:0.3125:0.375:0.3125
1562064027514846:1:-1:-23:9:13:6:6:4:-0.541016:-0.81543:0.271484:-0.125:0.1875:-0.375
1562064027559851:-4:-4:0:-1:-11:-14:-8:2:-0.543457:-0.824219:0.271484:-0.1875:0.0625:0.125
1562064027612856:-2:0:19:-9:-9:-1:10:0:-0.547852:-0.816895:0.270508:-0.5625:0.125:0.6875
1562064027663861:-1:-4:0:-1:-11:-8:-9:1:-0.544922:-0.821777:0.26709:-0.0625:0.0625:0.375
1562064027718867:0:4:18:-1:-4:2:0:4:-0.547852:-0.813965:0.27002:-0.4375:-0.0625:0.0625
1562064027761871:-1:-2:-2:2:11:-1:-2:3:-0.54541:-0.816895:0.27832:0.75:0.3125:0.5
1562064027815876:0:-3:7:-4:-6:-2:1:-6:-0.54541:-0.82373:0.273926:-0.8125:-0.5625:-0.125
1562064027859881:-3:0:-1:-1:-5:-1:-2:-1:-0.544922:-0.818848:0.281738:1.25:0.0625:0
1562064027919887:1:5:21:0:5:0:-8:0:-0.546387:-0.822266:0.271484:-0.875:-0.3125:-0.125
1562064027962891:-1:-2:-6:-6:-7:2:2:-8:-0.543945:-0.820312:0.27002:0.375:0.25:0.0625
1562064028017897:-1:1:1:-5:-1:-3:7:0:-0.545898:-0.81543:0.271973:-0.5:0.1875:0.1875
1562064028061901:-4:-2:9:-11:-13:-2:-1:-2:-0.545898:-0.816406:0.275391:1.0625:0.3125:0.625
1562064028121907:-2:1:-2:0:-13:-8:-3:-2:-0.544922:-0.818359:0.27002:-0.5:0:0.3125
1562064028162911:-3:-2:6:-6:-5:-6:-2:0:-0.544922:-0.812988:0.274902:0.3125:0.25:0.1875
1562064028223917:-2:-1:-9:0:-6:0:-1:-5:-0.54834:-0.814941:0.278809:-0.375:-0.3125:-0.0625
1562064028272922:-1:0:1:-3:-8:-5:-8:-3:-0.54834:-0.816895:0.274414:-0.0625:-0.25:0.25
1562064028317927:-2:-1:-4:-3:2:3:5:0:-0.546387:-0.821289:0.274902:-0.6875:-0.0625:0.6875
1562064028367932:0:0:-3:1:5:0:-2:-2:-0.54541:-0.810059:0.27832:0.125:0.4375:0.5625
1562064028422937:-2:-2:-5:-7:13:-1:-4:-1:-0.549805:-0.814941:0.272461:0.0625:0.1875:0.1875
1562064028464941:1:0:0:-2:2:2:-3:-6:-0.554199:-0.811035:0.280273:-0.25:-0.0625:0.125
1562064028520947:-1:-3:0:0:5:-7:-4:-1:-0.543457:-0.813477:0.27002:0.25:0.1875:-0.125
1562064028564951:-1:-1:2:-2:4:0:-2:0:-0.550781:-0.814941:0.273438:-1.3125:-0.375:-0.3125
1562064028624957:0:3:10:28:-8:-3:1:2:-0.554688:-0.815918:0.272461:-0.4375:-0.1875:1.0625
1562064028661961:-27:-5:-1:-13:-14:-1:3:8:-0.558105:-0.896973:0.208984:-17.875:-5.5:6.5625
1562064028713966:31:1:-24:-3:51:16:10:-8:-0.589844:-0.769043:0.241699:12.1875:-7.625:5.8125
1562064028765971:-3:0:-6:-70:-91:-46:-13:-49:-0.547852:-0.737793:0.331055:-0.75:-2.25:6.0625
1562064028821977:-14:-1:-22:-32:19:34:-25:-63:-0.504395:-0.678223:0.415039:-24.875:46.75:-1.5
1562064028864981:25:17:18:38:30:19:-7:-10:-0.544922:-0.773926:0.101562:-110.562:-16.6875:-14.375
1562064028924987:-30:-19:-3:-75:-40:-7:-27:-52:-0.51416:-0.820801:0.30957:34.625:8.375:6.4375
1562064028978993:25:1:-4:37:-2:-14:6:4:-0.532227:-0.710938:0.34668:38.6875:-2.5:1.375
1562064029025997:4:-3:-16:7:4:-40:-4:20:-0.563965:-0.777344:0.296387:-41.5625:4.25:-4.625
1562064029075002:-36:-5:-39:-99:-50:-13:-7:9:-0.583008:-0.791992:0.437988:-28:18.625:-25.4375
1562064029127007:26:1:-4:-37:10:13:7:-13:-0.518555:-0.749023:0.186523:72.8125:-22.625:17.0625
1562064029165011:-29:-3:17:60:17:-5:7:-10:-0.589355:-0.743164:0.375:61.0625:4.6875:-0.625
1562064029225017:2:2:5:22:25:11:-5:-2:-0.536133:-0.764648:0.260254:-23:6.1875:-19.75
1562064029281023:-2:-1:1:46:17:1:6:-2:-0.476074:-0.865723:0.225586:12.0625:0.9375:-18.25
1562064029326027:19:0:1:-30:-14:-3:2:8:-0.577637:-0.831543:0.22998:0.125:9.4375:-11.875
1562064029367031:-3:-1:-1:-13:1:3:-5:-7:-0.605957:-0.862793:0.246094:-16.1875:7.0625:3.8125
1562064029427037:-4:-1:-5:0:9:4:-3:-8:-0.59668:-0.849121:0.210938:2.3125:4.75:10.5
1562064029480043:-1:-2:-8:-8:-8:0:-3:-14:-0.566895:-0.822754:0.230957:-6.5625:1.625:9.875
1562064029525047:-5:-3:-8:-10:-13:-8:-5:-8:-0.55957:-0.82373:0.230469:0.0625:-0.25:6.3125
1562064029566051:-2:3:5:-4:0:0:-6:-21:-0.57373:-0.808594:0.23877:-2.1875:-3.4375:4.0625
1562064029626057:0:2:16:25:3:3:8:-3:-0.577637:-0.819824:0.222656:-1.6875:-3.9375:2.875
1562064029683063:-2:-4:-7:-8:-3:4:-7:-8:-0.0102539:-0.663086:0.92627:2.5625:-4.625:0.9375
1562064029728068:-3:-4:-3:-6:-9:-4:-2:1:-0.000976562:-0.696289:1.05322:-1.625:-7.375:-1.5
1562064029780073:1:-1:4:-4:0:-3:2:-2:-1.11328:-0.911133:-0.190918:8.4375:-9.625:-5.8125
1562064029825077:-1:0:-7:-12:-19:-7:-1:6:-0.513672:-0.833496:0.271973:-3.25:-7.625:-4.625
1562064029886083:0:-3:-11:-5:1:2:-1:3:-0.53125:-0.825684:0.270508:1.1875:-6:-2.5625
1562064029925087:-2:-2:-2:-3:-2:-2:3:2:-0.862305:-0.882324:0.379395:-1.875:4.75:-2.8125
1562064029988094:-2:1:21:10:0:-3:1:4:-0.672852:-0.836426:0.234375:-0.75:-7.5625:1.5625
1562064030027097:0:0:-1:-9:0:0:4:0:-0.535645:-0.816406:0.268066:-1.4375:-2.4375:4.1875
1562064030080103:-1:-2:2:1:-4:-4:0:0:-0.529785:-0.814941:0.263184:-4.625:-2.25:4.0625
1562064030124107:-3:0:8:2:-2:-2:3:-6:-0.535156:-0.814941:0.264648:-4.875:-1.25:3.8125
1562064030185113:-1:-4:6:-4:-1:1:4:-3:-0.541992:-0.817383:0.269043:-4.8125:-1.1875:2.5625
1562064030229118:1:1:-5:-16:-8:-4:-11:-3:-0.539062:-0.818359:0.262695:-5.875:-0.0625:0.3125
1562064030282123:-2:-2:-2:0:-3:-2:2:-3:-0.549805:-0.834473:0.27832:-2.8125:-0.4375:-0.4375
1562064030327127:0:2:9:1:-2:0:-2:-1:-0.537598:-0.835449:0.265137:-0.25:-0.25:-2.5
1562064030387133:-2:-3:-1:17:-1:-2:-5:-11:-0.520996:-0.819336:0.26123:-0.3125:0.5625:-1.375
1562064030428138:-1:-1:-2:-11:-2:1:-1:0:-0.537598:-0.829102:0.26416:1:-0.125:-0.4375
1562064030488144:-1:-1:-5:-5:-3:-3:-4:0:-0.532227:-0.830566:0.258301:0.5625:0:-1.1875
1562064030530148:-2:-2:1:-4:-2:-2:7:-1:-0.541992:-0.82373:0.246094:0.25:0.4375:-0.625
1562064030590154:-1:2:-1:1:0:-3:-3:0:-0.541504:-0.834961:0.249512:-0.375:0.3125:-0.125
1562064030642159:2:4:9:4:1:-3:6:9:-0.540039:-0.828125:0.250977:-1.3125:-0.875:0.4375
1562064030687163:0:1:1:2:-1:1:-2:5:-0.536621:-0.836426:0.262695:-0.1875:-1:1
1562064030728168:0:0:-1:-10:0:-1:2:0:-0.544434:-0.819824:0.265625:-0.0625:-0.5625:0.125
1562064030788174:0:1:-1:-5:-3:0:0:0:-0.549805:-0.825684:0.257324:1.1875:-0.25:-0.3125
1562064030829178:-1:-2:0:-2:0:1:-2:0:-0.558105:-0.818848:0.246094:0.75:0:-1.375
1562064030890184:-1:-2:0:6:3:0:-4:2:-0.55127:-0.824219:0.250488:1.0625:-1.8125:-2.6875
1562064030942189:0:0:0:-5:0:-1:0:-2:-0.538574:-0.817383:0.260742:0.3125:-5:-3.6875
1562064030987193:-2:-3:-3:-3:-1:-2:3:-1:-0.539062:-0.836426:0.262207:0.1875:-4.75:-3.25
1562064031043199:1:1:1:6:2:0:1:-1:-0.521973:-0.82666:0.265625:0.5:-4.0625:-3.125
1562064031092204:-1:0:-2:-6:-9:-1:-6:-1:-0.514648:-0.841309:0.273438:0.375:-3.4375:-2.75
1562064031145209:-2:-1:-2:-5:-3:-2:-1:-13:-0.521484:-0.835449:0.277344:-0.125:-1.5:-2.25
1562064031190214:-1:0:-1:4:-3:-1:-1:-5:-0.521973:-0.838867:0.271973:-0.25:-1.25:-1.5625
1562064031228218:0:0:-1:-9:2:1:-2:-2:-0.519531:-0.834473:0.26709:-0.0625:-0.9375:0.25
1562064031290224:1:-2:-2:-2:-1:-1:-4:4:-0.52832:-0.829102:0.275391:-0.75:0.1875:1
1562064031347229:-1:-3:-3:-9:-5:0:1:-18:-0.523438:-0.828613:0.265137:-0.5625:0.75:1
1562064031392234:1:-3:-5:-3:2:1:-3:7:-0.527344:-0.826172:0.271973:-0.3125:1.4375:0.6875
1562064031445239:-2:0:1:9:-13:-5:-3:-3:-0.532715:-0.823242:0.268066:-0.4375:1.125:0
1562064031489244:-1:-2:-2:4:-6:-3:-3:3:-0.533203:-0.82666:0.262207:-0.9375:-0.1875:-0.5625
1562064031549250:0:-2:-5:-4:1:1:3:8:-0.523926:-0.828125:0.271484:-0.4375:-0.625:-1.0625
1562064031602255:0:-4:-2:0:-1:-1:0:5:-0.520996:-0.828613:0.271484:-1.125:-0.4375:-1.9375
1562064031651260:1:0:0:5:-2:0:-1:1:-0.519043:-0.835449:0.26416:0.25:-0.4375:-1.625
1562064031692264:1:-1:2:-1:0:2:-1:-2:-0.532227:-0.818848:0.146484:-0.25:-7.6875:0
1562064031752270:-1:0:1:-24:-6:-2:-2:-1:0.203613:-0.808594:0.633301:-4.125:-3.0625:5.0625
1562064031790274:-1:-1:-4:10:-4:-1:4:0:0.224121:-0.762207:0.409668:0.875:-2:-1.75
1562064031850280:-3:0:-1:-3:-2:0:-3:-19:0.288086:-0.799316:0.626953:-3.125:-2.5625:1.125
1562064031903285:0:0:1:4:-3:-3:0:-1:0.102051:-0.84668:0.733887:-4.375:-1.1875:5.6875
1562064031950290:0:0:1:6:-1:0:-1:2:-0.140625:-0.875977:0.715332:-4.0625:0.75:6
1562064031992294:-3:-3:-7:-5:1:-4:-1:-1:-0.489258:-0.834473:0.274902:-0.875:-0.3125:-0.8125
1562064032052300:0:0:1:-13:3:1:0:-4:-0.538086:-0.824707:0.268555:0.875:-0.1875:1.4375
1562064032105305:1:2:3:15:7:1:-1:3:-0.533203:-0.833984:0.276855:0.5:-1.25:2.875
1562064032150310:1:-1:1:-2:1:1:0:6:-0.530762:-0.825684:0.276367:1.125:0.375:3.3125
1562064032195314:-1:-1:3:5:0:0:0:-3:-0.532715:-0.822754:0.276367:0.875:1.75:1.75
1562064032255320:0:-1:1:5:3:2:0:1:-0.539551:-0.823242:0.269043:-0.9375:1.4375:0.4375
1562064032307325:-1:-2:0:1:0:-2:11:3:-0.530762:-0.822754:0.26416:0.25:1:0.0625
1562064032353330:0:0:2:42:6:2:-6:-9:-0.534668:-0.823242:0.258301:-2.0625:-0.4375:-0.25
1562064032405335:0:-2:-3:-12:1:-1:2:-2:-0.53125:-0.831543:0.255371:0.0625:-0.5625:0.5625
1562064032452340:-1:-3:-2:-6:3:0:0:6:-0.53125:-0.821289:0.263184:-0.5625:-1:0.0625
1562064032495344:-1:1:2:-12:7:1:10:-1:-0.53418:-0.827637:0.273926:-1:0.0625:-0.625
1562064032555350:1:0:2:11:-6:-2:-3:-1:-0.534668:-0.82959:0.266602:0.375:-0.0625:0.5
1562064032607355:2:3:4:15:15:4:1:0:-0.536133:-0.830078:0.269043:1.125:0.3125:2.25
1562064032652360:8:-1:-3:-76:-2:2:1:4:-0.538086:-0.817383:0.292969:11.375:-2.125:4.8125
1562064032712366:-7:4:1:32:37:14:0:7:-0.546875:-0.811523:0.282227:-0.125:-3.625:4.5625
1562064032753370:-5:-5:-1:11:-5:-10:-1:8:-0.535156:-0.76123:0.307129:-0.3125:1.0625:2.0625
1562064032811376:-10:-6:-11:2:33:-4:4:45:-0.506348:-0.760254:0.343262:-33.9375:15.6875:8.375
1562064032855380:12:1:-16:-13:-28:3:19:27:-0.419922:-1.02051:0.148438:-112.25:-2.75:-3.875
1562064032914386:-10:10:-4:48:1:-16:-16:-3:-0.552734:-0.686035:0.138672:43.3125:4.0625:22.5
1562064032952390:-15:-11:-13:-88:-24:-1:-1:5:-0.539062:-0.686523:0.322266:68.0625:-8.25:6.75
1562064033012396:14:-4:8:-10:72:-51:2:55:-0.641602:-0.785645:0.318848:-22.625:10:-8.8125
1562064033065401:7:5:13:26:-87:14:5:7:-0.645996:-0.70752:0.130859:-36.6875:30.125:-16.8125
1562064033109406:-10:-13:-3:3:-20:-6:4:5:-0.61084:-1.0415:0.0078125:-29.3125:-5.75:-11.625
1562064033155410:-6:15:10:74:19:12:-9:-14:-0.583008:-0.739746:0.284668:110.688:-8.8125:21.75
1562064033215416:29:8:-2:-22:-47:-23:1:8:-0.459473:-0.798828:0.496582:7.625:10:-7.5625
1562064033255420:17:2:-4:-17:-9:2:-14:-4:-0.478516:-0.908691:0.17627:-15.5:10.6875:-20.625
1562064033316426:7:-1:-9:17:-14:6:1:-1:-0.638184:-0.903809:0.143555:0:-0.375:-15.1875
1562064033357430:2:-1:7:28:11:-4:-9:-2:-0.522949:-0.804199:0.26709:-8.6875:-11.5:4.5
1562064033418437:0:1:-3:-3:1:0:10:5:-0.493164:-0.878906:0.282227:5.125:-0.4375:-1
1562064033469442:0:1:5:-17:-13:-6:-6:5:-0.573242:-0.804688:0.230469:-4.0625:-5.5625:-1.375
1562064033515446:-1:1:-4:-2:3:3:-4:0:-0.54541:-0.84668:0.251465:-1.375:-1.375:0.9375
1562064033568452:-2:-4:-9:-7:5:-1:2:-4:-0.55127:-0.799805:0.24707:1.75:-1.8125:1.0625
1562064033627457:0:1:6:-1:7:0:-1:1:-0.53125:-0.837891:0.24707:-0.6875:-2.5:0.75
1562064033658461:0:2:5:-5:-8:-2:8:-1:-0.26709:-0.898926:0.634277:1.6875:-3.5:-2.0625
1562064033718467:1:0:-6:2:3:-3:2:1:-1.05518:-1.0249:-0.171875:2.9375:-2.125:-1.6875
1562064033770472:0:1:4:11:7:2:1:2:-1.00098:-1.01807:-0.0839844:3.625:-4.0625:-3.1875
1562064033815476:1:-1:2:3:5:0:0:2:-0.530762:-0.830078:0.263672:-2.3125:-4.375:-3.4375
1562064033874482:-3:-5:-13:-9:3:-3:0:2:-0.53418:-0.831055:0.251953:-0.25:-2.8125:-3.875
1562064033920487:0:6:0:1:-8:-6:-1:-5:-1.13672:-0.875488:-0.0336914:4.125:4.1875:-7.6875
1562064033972492:0:1:0:6:-1:-2:-2:0:-0.737305:-0.804199:-0.0898438:5.25:-1.5:-6.4375
1562064034017496:2:2:0:-3:1:6:0:7:-0.531738:-0.836426:0.254395:1:-1:-1.4375
1562064034070502:-2:-1:0:-2:1:-3:1:-1:-0.519043:-0.839844:0.258789:-0.0625:-0.3125:-0.0625
1562064034118507:-1:1:-3:1:8:0:-5:-5:-0.527344:-0.824707:0.257812:1:-0.375:0.375
1562064034175512:-2:-1:2:8:6:0:2:7:-0.53418:-0.830078:0.263184:1.1875:0:0.625
1562064034221517:-1:-1:-1:-5:-2:-1:0:-9:-0.534668:-0.831543:0.255859:0.1875:0.375:0.125
1562064034272522:-1:-3:2:8:4:2:3:-10:-0.52832:-0.832031:0.260254:0.375:0.5625:-0.25
1562064034318527:1:0:0:1:-2:-2:-1:3:-0.529297:-0.830566:0.263184:-3.1875:-0.4375:-1.4375
1562064034378533:0:0:-8:-4:1:-1:4:0:-0.533203:-0.828125:0.260742:0.8125:-0.3125:-0.4375
1562064034418537:-6:-2:-2:-6:0:-6:-11:-2:-0.521484:-0.837402:0.254883:-0.75:-0.375:-0.0625
1562064034477542:-2:0:0:-13:-4:-2:-3:0:-0.520996:-0.831055:0.264648:-0.0625:0.5625:-0.8125
1562064034520547:-1:-2:-3:0:1:2:3:1:-0.524902:-0.833496:0.257324:0.5:-0.1875:-1.125
1562064034572552:1:2:1:14:-2:1:5:2:-0.526367:-0.83252:0.256348:1.125:-0.375:-0.8125
1562064034617556:-2:-3:-9:6:2:0:-9:-9:-0.523926:-0.833984:0.261719:2.875:-2.1875:0.875
1562064034670562:1:0:0:-8:4:0:-3:-3:-0.523926:-0.825195:0.276367:5.1875:-0.625:-0.25
1562064034729568:0:3:-10:6:1:-2:2:-5:-0.53125:-0.82666:0.264648:-0.875:-0.125:-0.8125
1562064034777572:-1:-1:1:19:4:2:-1:5:-0.530273:-0.834961:0.261719:2.875:-1.75:0.125
1562064034820577:-1:1:-2:29:3:-1:-3:-6:-0.523438:-0.837402:0.270996:-0.5:-0.3125:-0.8125
1562064034880583:-2:0:6:33:7:0:5:-2:-0.52832:-0.834961:0.266113:1.5:-0.4375:-0.375
1562064034931588:1:0:-5:-35:0:1:3:5:-0.522461:-0.819824:0.279297:1.875:-0.75:-1.125
1562064034977592:-1:-4:-3:-18:-1:0:4:3:-0.527832:-0.850098:0.26416:-0.5:-1:-1.8125
1562064035023597:1:7:18:-4:0:-1:-4:-9:-0.52832:-0.82373:0.276367:-0.25:-0.9375:-1.8125
1562064035082603:1:4:2:-12:0:3:-3:1:-0.51709:-0.836426:0.270996:1.5625:0.625:-1.4375
1562064035135608:1:0:-7:-4:-5:-1:-3:-9:-0.520508:-0.83252:0.276855:0.625:-1:0.125
1562064035180613:-1:1:2:-2:4:-1:1:3:-0.521973:-0.835938:0.280273:1.625:0.625:1.3125
1562064035232618:-5:-5:-6:60:-8:-5:-7:-21:-0.511719:-0.828613:0.275391:0.125:1.3125:1.0625
1562064035279623:1:0:-4:-25:-11:-3:-4:2:-0.530762:-0.814941:0.279297:0.9375:0.875:0.5625
1562064035322627:1:-3:0:2:-4:-3:-6:-2:-0.531738:-0.825195:0.275879:-0.6875:0.375:-0.125
1562064035383633:-2:0:-2:-1:3:-2:-6:-16:-0.52832:-0.835938:0.275391:-0.4375:-1.0625:-0.1875
1562064035435638:1:2:3:0:6:5:0:3:-0.524902:-0.819824:0.275879:-0.375:-0.0625:-0.6875
1562064035480643:-1:-2:-1:-11:0:-2:-4:-4:-0.523926:-0.831543:0.268066:-1.5:-0.5:-0.5
1562064035531648:1:1:-3:11:2:2:7:3:-0.524902:-0.825195:0.271973:0.375:0.0625:0.1875
1562064035579653:1:5:1:-6:-1:-1:-4:-2:-0.522949:-0.831543:0.27832:-0.875:0.8125:-0.375
1562064035640659:-2:1:-1:-8:-1:1:6:-17:-0.52002:-0.836426:0.273438:-0.625:0.375:0.625
1562064035683663:1:0:-2:-8:-3:0:1:2:-0.516113:-0.83252:0.283203:-1.0625:0.1875:0.5
1562064035735668:-1:-2:-7:1:3:2:3:3:-0.396973:-0.870117:0.547852:-3.9375:-1:2.75
1562064035780673:-1:1:-1:2:-7:-3:-1:-5:-0.892578:-0.783691:-0.15332:5.875:1.5:-5.8125
1562064035841679:-2:0:1:-1:-4:-1:-2:-7:-1.00391:-0.795898:-0.17041:5.625:1.625:-4.625
1562064035885683:-1:-1:8:3:0:4:-1:-4:-0.894043:-0.78418:-0.139648:4.0625:0.5:-4.5
1562064035937688:-2:-2:-4:-1:-4:-1:-2:-2:-0.885254:-0.777344:-0.140137:6:0.4375:-4.6875
1562064035982693:1:0:-5:-7:0:1:0:-1:-0.959961:-0.79834:-0.0458984:4.8125:1.625:-5.5
1562064036034698:-2:-5:-2:4:0:-1:6:2:-0.527832:-0.82666:0.269531:-0.1875:1:-0.375
1562064036095704:0:0:0:-18:1:-1:0:10:-0.530273:-0.823242:0.267578:-0.25:0.375:-0.0625
1562064036140709:-1:0:-5:2:4:2:-10:-9:-0.524902:-0.832031:0.265137:-0.5:0.3125:-0.0625
1562064036188714:-2:0:15:-6:-4:-2:-2:-2:-0.524414:-0.827637:0.268066:-0.1875:0.75:-0.0625
1562064036225717:-1:-3:-7:-10:2:-1:-5:-3:-0.532715:-0.822754:0.274414:-1.0625:0:0.125
1562064036285723:0:-4:-5:-24:0:1:0:1:-0.53125:-0.822754:0.275879:0.625:0.75:0.5
1562064036334728:-1:1:2:4:-6:0:-3:9:-0.523926:-0.824219:0.268066:0.25:0.0625:0.625
1562064036390734:1:-1:-2:1:-2:-2:-1:-3:-0.532715:-0.824707:0.276367:-0.125:0.5625:0.3125
1562064036439739:1:9:20:16:6:1:0:3:-0.532715:-0.827637:0.272949:0.125:0.625:0.5
1562064036487743:-1:0:-1:-4:-2:0:-1:0:-0.530762:-0.827637:0.275391:-0.8125:0.1875:0.4375
1562064036536748:1:-2:-7:1:-7:-5:-1:0:-0.533203:-0.827148:0.270508:-0.0625:0.8125:0.375
1562064036585753:-1:-2:-5:4:2:1:2:3:-0.528809:-0.818359:0.277832:0.4375:0.5625:0.9375
1562064036645759:1:-1:-1:11:8:1:3:5:-0.537598:-0.82373:0.271973:0.625:-0.0625:0.25
1562064036695764:0:-3:-6:2:1:-1:2:3:-0.538574:-0.818359:0.270996:-0.9375:0.5625:-0.125
1562064036740769:-1:0:0:1:-2:-2:13:6:-0.532715:-0.818359:0.273438:0.4375:-0.25:0.375
1562064036799775:0:4:1:-10:-1:0:1:5:-0.536133:-0.829102:0.275879:-0.9375:-0.4375:0.0625
1562064036849780:-2:0:-9:1:5:-5:-4:-5:-0.530273:-0.823242:0.270508:0.8125:-0.3125:0.25
1562064036896784:-2:-1:2:24:2:-1:-4:2:-0.537598:-0.828125:0.277832:-1:0.0625:0.5
1562064036948790:0:-2:-2:10:2:0:0:3:-0.534668:-0.817871:0.275879:0.375:0.3125:0.1875
1562064036989794:-1:-2:2:-11:-4:-1:-2:-4:-0.536621:-0.818848:0.270996:0:0.375:-0.125
1562064037050800:-1:2:1:-3:1:-3:-2:-2:-0.538086:-0.821777:0.26709:-0.125:-0.9375:0.0625
1562064037100805:-1:2:9:5:2:2:9:6:-0.529785:-0.828613:0.276855:-0.25:-0.375:-0.0625
1562064037148810:2:0:-4:11:2:2:-2:-3:-0.538574:-0.820801:0.278809:-0.25:0.1875:0.125
1562064037197814:-1:-3:3:5:1:-1:0:-4:-0.538574:-0.823242:0.271484:0.125:-0.125:0.9375
1562064037248820:-9:-4:-5:-64:-23:-6:-4:9:-0.540039:-0.836914:0.272949:-0.4375:0.4375:0.625
1562064037303825:0:1:5:21:10:2:2:-6:-0.536133:-0.832031:0.267578:4.875:0.8125:1.8125
1562064037340829:-5:-6:-1:69:5:-10:-3:-8:-0.535156:-0.837402:0.262695:3.3125:0.25:1.8125
1562064037399835:11:-1:-4:4:-6:0:-22:-21:-0.537109:-0.785645:0.288574:11.75:-1:1.5625
1562064037448840:5:7:13:29:1:10:6:13:-0.511719:-0.840332:0.300781:-0.625:-4.3125:1.3125
1562064037508846:5:14:-5:-72:-8:5:1:-5:-0.535645:-0.812988:0.299805:0.6875:2.875:-0.4375
1562064037556850:3:-2:5:35:-4:2:3:5:-0.546387:-0.8125:0.278809:-1.0625:3.5625:0.75
1562064037608856:8:-2:0:-29:8:0:4:-4:-0.556152:-0.815918:0.270996:-11.0625:-1:0.4375
1562064037650860:3:3:-1:-6:-59:-36:3:7:-0.542969:-0.784668:0.283203:-6.75:-1.0625:2.125
1562064037699865:-17:-10:10:-27:73:34:-8:-63:-0.535156:-0.79541:0.297852:-24.8125:0.5625:0.625
1562064037748870:5:-11:-25:9:-32:-10:-8:67:-0.590332:-0.686523:0.337891:-45.4375:-14:-9.1875
1562064037808876:4:3:36:92:9:45:14:8:-0.533203:-0.869629:0.133301:16.875:6.75:25.25
1562064037856880:10:-5:8:127:21:6:28:-21:-0.637695:-0.65625:0.20752:30.3125:-3.875:24.1875
1562064037909886:-48:0:2:-7:2:9:-12:-13:-0.553223:-0.746582:0.39502:78.0625:1.6875:-0.875
1562064037950890:13:-1:-4:15:50:12:-8:-44:-0.640137:-0.601562:0.254395:-45.8125:8.375:-8.6875
1562064038011896:30:2:1:22:0:9:4:14:-0.626953:-1.15186:0.100098:-3.625:0.4375:-40.125
1562064038059901:74:-10:12:90:34:0:-5:-13:-0.576172:-1.14062:0.0488281:4.0625:-24.6875:-0.625
1562064038111906:-10:5:-7:-48:4:12:-9:9:-0.556152:-0.71875:0.427734:72.625:-2.4375:15.3125
1562064038150910:15:5:8:40:-35:0:-3:8:-0.554199:-0.65625:0.347656:-39.1875:9.875:-6
1562064038209916:-5:2:7:55:3:-5:-12:-7:-0.62207:-0.946777:0.174316:19.25:14.1875:-12.9375
1562064038263921:-11:2:3:-14:1:3:-4:-12:-0.558594:-0.762207:0.214844:9.25:-5.125:-2.4375
1562064038310926:-4:-1:-1:20:11:1:1:8:-0.521484:-0.885742:0.269043:-9.9375:-5.1875:0.5
1562064038360931:-10:-10:-5:13:-7:0:-11:-7:-0.541016:-0.827148:0.256836:9.4375:-2:-0.625
1562064038411936:1:1:-5:-5:-9:-8:4:5:-0.554199:-0.805176:0.249512:5.75:-7.625:-0.875
1562064038465941:0:1:6:3:3:-2:-8:5:-0.523926:-0.839355:0.282715:1.3125:-3.0625:-0.0625
1562064038513946:-1:1:-3:-10:7:-1:-2:-2:-0.544434:-0.805176:0.265625:0.8125:1.4375:-2.5625
1562064038562951:-1:-2:-1:-3:-9:-3:1:2:-0.00146484:-0.891602:0.760742:-1.375:-1.5625:0.125
1562064038610956:0:1:9:0:0:0:-8:-1:-0.462402:-0.699219:0.0805664:-2.3125:-2.25:-0.5
1562064038670962:1:3:-2:14:3:-2:0:-1:-0.844238:-0.99707:0.131348:3.3125:-2.1875:-2.25
1562064038719967:0:0:1:-20:0:2:-2:-4:-0.204102:-0.79248:0.274414:0.5625:-7.625:-0.125
1562064038765971:-1:1:20:1:6:2:8:-10:-0.537109:-0.822266:0.258789:0.25:-1.9375:-1.9375
1562064038809976:1:0:-7:-9:-4:-5:-1:3:-0.518066:-0.816406:0.28418:1.9375:-2.125:-1.1875
1562064038861981:0:-2:-5:12:7:0:1:1:0.046875:-0.878906:0.761719:-3.0625:-1.5:-2.0625
1562064038916986:1:6:19:-7:2:1:4:8:-0.544922:-0.813965:0.271484:1.5625:-2.25:-2.5
1562064038968992:0:-2:-9:-4:3:-1:-1:-3:-0.53418:-0.830078:0.275879:-2.1875:-0.625:-2.375
1562064039012996:-3:0:-10:-1:-11:-2:-2:-1:-0.524414:-0.828125:0.261719:-0.75:-1.5625:-2.875
1562064039074002:0:-2:-3:5:6:1:0:4:-0.52002:-0.830078:0.275879:-0.0625:-2.1875:-3.3125
1562064039114006:0:-1:-2:-7:1:1:-1:1:-0.522461:-0.830078:0.276855:-0.0625:-1.8125:-3.375
1562064039174012:-3:-6:-20:-4:-5:-2:-3:0:-0.52002:-0.834961:0.273926:0.25:-2.75:-2.9375
1562064039223017:0:1:4:3:-5:-2:2:0:-0.52002:-0.830078:0.28418:-1.125:-2.75:-2.75
1562064039269022:0:-2:0:2:5:1:-1:5:-0.51416:-0.837402:0.276855:-0.4375:-2.5625:-1.8125
1562064039313026:-1:2:-1:-4:-3:-1:-2:-2:-0.508789:-0.835449:0.282715:-0.25:-1.9375:-1.3125
1562064039373032:-3:-1:-2:-6:-2:-5:-5:1:-0.504883:-0.839844:0.278809:-1.8125:-0.4375:-1.1875
1562064039426037:-1:-1:6:-1:0:-1:1:-1:-0.510254:-0.837891:0.281738:-0.3125:-0.25:-0.25
1562064039473042:0:0:-4:-6:-3:-5:-9:-8:-0.509277:-0.84375:0.265625:-1:1.5:0.4375
1562064039522047:-1:-1:5:-1:0:-1:10:6:-0.509766:-0.842285:0.272461:-0.8125:1.75:0.4375
1562064039552050:1:1:6:-3:3:0:3:2:-0.510742:-0.835449:0.274414:0.375:1.3125:0.25
1562064039613056:0:0:0:-10:-6:-2:0:1:-0.516113:-0.839844:0.270508:-0.375:0.5:0.0625
1562064039672062:0:-1:6:4:-1:-2:-3:-4:-0.517578:-0.828613:0.277832:0:-0.3125:0.3125
1562064039725067:2:5:2:-2:-4:-2:0:3:-0.512695:-0.84082:0.269043:-0.875:0.125:-1
1562064039776072:-1:-2:1:4:0:0:3:3:-0.51123:-0.835449:0.276855:0.3125:-0.25:-1.4375
1562064039815076:-2:-3:-5:3:-2:-1:2:6:-0.516602:-0.834961:0.272949:-1.625:-0.3125:-1.6875
1562064039875082:-3:0:18:-1:1:0:1:-4:-0.510254:-0.838379:0.269043:-0.625:-0.25:-0.375
1562064039928087:-1:0:-5:-5:-2:-1:-1:-15:-0.499512:-0.847656:0.279785:0.1875:0.5625:-0.1875
1562064039973092:1:1:0:-2:-7:-3:-1:7:-0.513184:-0.833984:0.275879:-0.1875:1.5625:0.1875
1562064040033098:-1:0:-1:-6:-2:-1:-1:-2:-0.512207:-0.834473:0.267578:0.3125:1.3125:0.8125
1562064040075102:0:-2:2:-1:-1:-1:1:2:-0.517578:-0.836914:0.270996:0.25:0.8125:-0.25
1562064040136108:-1:0:2:0:-3:-3:-3:1:-0.51709:-0.838867:0.265137:0.1875:-1.625:-1.875
1562064040175112:0:-1:0:3:0:1:1:8:-0.509277:-0.83252:0.274414:-0.4375:-1.625:-2.1875
1562064040228117:1:-2:4:2:-1:-2:0:-1:-0.509277:-0.834961:0.276367:-0.25:-1.375:-2.0625
1562064040276122:-2:0:2:-4:-2:-1:1:-1:-0.506836:-0.837891:0.277344:-0.4375:-1:-1.6875
1562064040326127:-2:0:-4:1:2:-3:-3:-3:-0.507324:-0.839355:0.283691:-1.125:-0.4375:-1.375
1562064040385133:-1:0:-1:0:1:2:6:-2:-0.500488:-0.843262:0.272461:-1.5:-0.1875:-1
1562064040431138:-2:-1:3:9:-8:-2:1:3:-0.499512:-0.845215:0.275879:-0.75:0.125:-0.6875
1562064040475142:-1:-1:-3:-5:-4:1:-1:3:-0.501953:-0.845703:0.267578:-0.6875:0.375:-0.25
1562064040528147:-2:-1:-2:-8:3:3:-7:-19:-0.511719:-0.841797:0.271973:-0.75:0.1875:0.125
1562064040582153:2:3:11:4:5:1:-3:2:-0.494629:-0.847656:0.266113:-0.1875:1.25:-0.5625
1562064040636158:2:1:5:21:0:-3:1:-6:-0.71582:-0.815918:0.0649414:2.125:4:-3.9375
1562064040685163:1:-1:-3:-2:-1:-1:-6:-3:0.221191:-0.828125:0.65332:-4:-2.9375:5.5
1562064040731168:-4:-2:1:1:0:-2:-1:-5:0.297363:-0.837891:0.671387:-5.3125:-3.0625:1.9375
1562064040775172:-1:1:19:8:3:-2:5:2:0.0654297:-0.871094:0.714355:-5:-1.875:3.375
1562064040835178:-1:-1:-2:-6:-4:0:-2:-1:-0.244141:-0.911621:0.671387:-6:-0.1875:3.875
1562064040878182:0:-1:-2:-2:3:0:2:-3:-0.415527:-0.916016:0.623535:-4.5:1:4.0625
1562064040934188:0:0:-4:0:-5:-2:2:4:-0.489258:-0.841797:0.272949:0.5625:-0.1875:-1.1875
1562064040977192:-2:-3:-5:3:0:0:0:-6:-0.504395:-0.847168:0.27002:0.125:0.4375:-0.625
1562064041037198:1:-2:-6:-1:1:1:0:-2:-0.498047:-0.849121:0.264648:-0.1875:-0.1875:-0.4375
1562064041098204:0:-1:-2:6:1:-3:-2:10:-0.499023:-0.84375:0.269531:0.4375:0.375:-0.5625
1562064041135208:-2:-1:-1:-1:-2:2:-2:-2:-0.495117:-0.854492:0.269531:0.875:0.9375:-0.5625
1562064041178212:0:1:2:-4:-1:0:-4:-3:-0.493164:-0.847656:0.271973:3.125:2.625:0
1562064041239219:-1:-3:-2:-1:-2:-2:2:0:-0.502441:-0.84668:0.278809:2.9375:3.125:1.125
1562064041277222:0:0:-2:-2:-4:-3:-3:-3:-0.506348:-0.833496:0.280273:2.875:3.1875:1.9375
1562064041337228:-1:-1:-2:-1:-4:0:1:1:-0.519531:-0.836426:0.269043:2.625:1.9375:-0.0625
1562064041379233:-1:-4:0:-1:-8:0:2:5:-0.515137:-0.820801:0.269043:3.5:0.6875:-2
1562064041438238:-1:0:-2:2:-6:-3:-1:-7:-0.51123:-0.829102:0.276367:2.5625:-3.1875:-2.625
1562064041488243:2:1:-3:-12:-4:0:3:6:-0.492188:-0.838867:0.280273:0.5:-4.125:-2.75
1562064041540249:-1:-5:-3:-1:3:2:0:-3:-0.462402:-0.849121:0.275391:0.8125:-2.125:-1.6875
1562064041578252:1:-1:-1:4:7:2:4:8:-0.509277:-0.841309:0.300293:2.5625:-1.8125:0.0625
1562064041637258:-2:3:0:-7:-4:-3:-2:-5:-0.463379:-0.849609:0.274902:-0.4375:-0.9375:3.875
1562064041691264:1:2:2:0:0:2:-2:4:-0.502441:-0.817383:0.314941:0.125:1.625:5.125
1562064041741269:0:0:-1:-7:-3:-2:-2:-3:-0.523438:-0.810547:0.298828:0.1875:2.4375:3.5625
1562064041779273:-1:-1:0:-3:0:0:-2:-1:-0.529297:-0.80957:0.281738:-2.3125:1.375:2.75
1562064041840279:-1:-1:-1:-6:1:0:-1:-1:-0.498047:-0.833008:0.276367:-1.375:0.25:-0.9375
1562064041893284:0:2:3:-3:-5:-3:-2:0:-0.500977:-0.836914:0.273438:-2.875:-0.3125:-1.8125
1562064041938288:-1:-2:-3:-1:1:1:0:-3:-0.491211:-0.854492:0.277344:0.1875:0.375:-0.6875
1562064041990294:0:2:-1:-2:-3:-1:-4:-1:-0.5:-0.84375:0.276855:-0.125:-0.125:1
1562064042041299:-1:-1:1:6:4:-2:-1:-3:-0.504883:-0.838379:0.273438:2.4375:-0.5:1.6875
1562064042080303:1:-4:-5:2:1:0:2:2:-0.509766:-0.833984:0.277344:0.9375:-0.375:2
1562064042140309:-1:-1:-1:-4:0:0:-4:-2:-0.523438:-0.820312:0.283691:1:-1.375:1.3125
1562064042193314:-2:-2:-5:-8:1:2:1:-2:-0.516113:-0.82666:0.296875:0.375:-0.9375:-0.1875
1562064042241319:0:-1:0:-4:3:1:2:-2:-0.522949:-0.831543:0.293457:-0.6875:-1:-0.8125
1562064042290324:2:-1:2:-2:0:2:0:1:-0.52002:-0.832031:0.285645:-0.8125:-1:-0.375
1562064042341329:-1:-1:0:-1:-6:0:2:1:-0.514648:-0.828125:0.289062:-0.375:0.4375:-0.75
1562064042396334:-2:-2:-1:-16:-14:-1:-3:-2:-0.506348:-0.833008:0.286621:-1.0625:0.75:-1
1562064042441339:0:-3:-2:5:4:1:-1:1:-0.505859:-0.841309:0.275391:-0.125:0.625:-1.0625
1562064042493344:-2:-1:0:-3:-1:-1:-3:4:-0.5:-0.842773:0.274414:-0.3125:0.125:-0.5625
1562064042541349:-1:-1:-1:7:0:-1:2:-2:-0.501465:-0.836426:0.276367:0.125:0:-0.375
1562064042590354:0:-4:-4:-7:-3:-2:-2:-2:-0.508789:-0.837891:0.285156:1.25:-0.875:0.8125
1562064042642359:0:0:4:0:1:-1:-1:1:-0.510742:-0.83252:0.28418:0.25:-0.125:1.1875
1562064042696364:-1:-1:1:-1:1:0:4:0:-0.51123:-0.833008:0.290527:-0.25:0.4375:0.875
1562064042740369:-1:0:2:-2:-9:-1:8:4:-0.522461:-0.825684:0.288086:0.1875:0:0.25
1562064042800375:-2:-2:-2:3:4:0:1:-1:-0.512695:-0.830078:0.288574:-0.0625:0.0625:0.125
1562064042844379:-2:-1:2:-3:1:-2:-11:-6:-0.513184:-0.834961:0.294434:0.0625:-0.6875:-0.25
1562064042898384:-1:1:2:8:3:-1:-2:0:-0.512695:-0.835938:0.286621:-0.1875:-1:-0.0625
1562064042943389:-1:-2:-4:21:3:-1:-3:0:-0.509277:-0.839844:0.286621:-0.75:-0.25:0.3125
1562064042995394:-1:0:2:-1:-2:-1:1:-1:-0.510254:-0.82666:0.285645:3:-1.125:0.4375
1562064043043399:-1:-2:-7:-55:1:3:-5:-6:-0.510742:-0.858887:0.272949:-3.5:0.9375:0
1562064043100405:8:-2:-7:-100:-19:-3:30:10:-0.514648:-0.829102:0.289062:8.4375:-0.375:2.3125
1562064043141409:8:-5:-17:23:-53:-22:-16:-29:-0.511719:-0.879395:0.274414:-3.375:2.0625:2.375
1562064043200415:2:6:29:32:-18:32:-4:-25:-0.561035:-0.71582:0.335449:16.75:-2:5.9375
1562064043243419:-25:-34:-12:-4:44:-1:-18:-79:-0.501953:-0.658691:0.341309:-72.0625:33.375:6.9375
1562064043302425:-4:0:-30:22:24:21:-8:2:-0.498047:-0.894043:-0.00488281:-162.938:-0.8125:-13.3125
1562064043343429:-19:-4:10:56:-8:-28:-18:18:-0.542969:-0.763672:0.198242:69.1875:-0.4375:15.875
1562064043403435:-22:1:-3:-33:-5:2:29:4:-0.520508:-0.623047:0.306641:28.1875:-10.8125:9.8125
1562064043445439:3:3:0:43:-17:22:8:17:-0.602051:-0.706543:0.300781:-14.5625:10.1875:-8.625
1562064043505445:10:10:15:28:83:88:52:32:-0.53125:-0.743164:0.197266:-75.4375:16.6875:-10.5
1562064043542449:9:-10:-21:-60:-19:-12:-6:23:-0.486328:-1.11084:0.0537109:37.4375:-13:5.5
1562064043603455:15:10:19:127:18:-4:2:3:-0.552246:-0.782715:0.268555:69.1875:1.375:11.6875
1562064043658460:11:2:20:32:23:11:-2:0:-0.481934:-0.755371:0.32959:1.4375:1.625:-12.375
1562064043704465:-7:-1:6:35:-6:-3:3:0:-0.505859:-0.955078:0.206543:-19.8125:-10.4375:-12.8125
1562064043744469:0:-2:0:17:-11:-7:0:-4:-0.522949:-0.80127:0.245605:13.4375:-2.75:-5.75
1562064043805475:3:1:3:-21:1:4:3:1:-0.493164:-0.854492:0.271484:-0.4375:-5.8125:-0.75
1562064043857480:0:-1:-2:-2:4:1:-3:4:-0.528809:-0.836914:0.268555:1.1875:-3.75:0.6875
1562064043902485:-1:-4:-12:-39:-4:3:10:5:-0.516113:-0.833984:0.284668:3.1875:-5.5625:0.9375
1562064043962491:0:-2:-3:24:5:-1:-5:-2:-0.499512:-0.836914:0.282715:-1.1875:-0.5625:-1.6875
1562064044003495:0:1:0:-25:6:-1:5:9:0.12793:-0.758789:0.758301:1.9375:-1.25:-3.125
1562064044063501:1:-1:-4:-9:-4:-3:-8:-7:-0.783691:-1.00977:0.211426:7.125:-0.875:-0.3125
1562064044105505:-3:-2:-1:18:-5:-3:-4:-1:-0.597168:-0.702637:0.128906:0.1875:-3.6875:0.125
1562064044164511:0:2:0:10:2:-1:2:5:-0.568359:-0.844238:0.27832:3.0625:-2.75:0.375
1562064044202515:0:-1:-2:-16:-7:-3:-4:-1:-0.509277:-0.828125:0.296387:-0.5:-2.8125:0.25
1562064044263521:1:2:6:-17:-3:-1:-4:0:-0.438477:-0.740723:-0.0541992:3:-3.8125:-1.125
1562064044303525:-1:-1:5:-18:-5:-1:1:9:-0.561523:-0.856445:0.289551:-1.75:-5.8125:-0.25
1562064044367531:0:-7:-6:-72:-6:-1:-3:-2:-0.506836:-0.835938:0.283691:-1.125:-1.3125:0.9375
1562064044404535:-1:-2:-2:19:7:2:-6:0:-0.506348:-0.833496:0.282715:-1.25:0.25:0.875
1562064044465541:1:1:-2:12:-11:-2:5:5:-0.500977:-0.841797:0.285156:-1.0625:1.5:1.0625
1562064044517546:-3:-4:-5:7:-4:-4:-3:5:-0.513672:-0.840332:0.290039:0.5625:1.5:1.9375
1562064044565551:1:-2:0:-4:-2:0:-1:-5:-0.523926:-0.824707:0.290039:1.4375:1.625:2.75
1562064044607555:-1:0:1:14:7:2:0:1:-0.533203:-0.821777:0.288574:0.4375:-1:3.125
1562064044667561:0:2:1:-7:-2:-3:-5:6:-0.526855:-0.816406:0.288574:-1.1875:-1.0625:-0.0625
1562064044719567:-1:-2:-13:-4:0:-2:5:6:-0.533691:-0.810547:0.285156:-1.8125:-2.25:-1.375
1562064044764571:1:0:0:-4:-4:3:-2:-6:-0.532227:-0.824707:0.287598:-1.5625:-1.375:-2.4375
1562064044818576:-2:1:1:2:4:0:-3:-8:-0.523438:-0.859863:0.283691:-2.3125:-2.8125:-3.5
1562064044865581:-1:-2:6:10:5:1:-2:-1:-0.504883:-0.84375:0.289551:-0.625:-1.6875:-1.4375
1562064044908585:1:-1:3:5:3:1:1:6:-0.507812:-0.824219:0.288086:1.0625:0.4375:0.8125
1562064044968591:-1:-1:-1:-9:-3:1:14:-3:-0.525391:-0.819824:0.29248:-0.125:-0.1875:1.875
1562064045020597:0:-1:-1:-4:0:-1:-2:-1:-0.499512:-0.841797:0.277344:-0.3125:-1.6875:0.0625
1562064045065601:1:-4:-3:-6:-2:2:1:3:-0.512695:-0.844238:0.275879:-2.625:-2.875:-3.0625
1562064045124607:-2:1:-1:-4:-5:-1:-5:-4:-0.496582:-0.845703:0.280273:-0.625:-1.8125:-2.375
1562064045166611:1:-2:-6:3:-2:0:2:2:-0.513184:-0.842773:0.288574:-1.6875:0.125:-0.8125
1562064045222617:-1:1:2:1:1:-3:2:4:-0.519043:-0.832031:0.294434:1.8125:1.3125:1.625
1562064045267621:0:0:-1:2:-1:-1:0:2:-0.516602:-0.819824:0.289551:-0.125:0.875:2.1875
1562064045327627:1:1:19:-20:-15:-1:-2:-3:-0.496582:-0.827148:0.285645:1.625:1.625:0.125
1562064045368631:0:0:-3:2:9:1:2:5:-0.52832:-0.831055:0.283691:0:-0.125:0.375
1562064045421637:1:1:-7:2:4:4:7:0:-0.524902:-0.828125:0.282227:-0.4375:-0.1875:0.75
1562064045470642:-1:1:-4:5:1:1:-1:1:-0.513672:-0.831055:0.291504:-0.0625:-0.3125:0
1562064045522647:-3:-2:-3:-2:3:-1:4:5:-0.513184:-0.832031:0.287598:0.625:0.0625:-0.25
1562064045568651:0:-1:0:0:1:-2:2:1:-0.513184:-0.835938:0.297363:2.1875:1.0625:-0.25
1562064045627657:-3:-2:-8:6:0:0:-6:-14:-0.515625:-0.832031:0.288086:2.625:1.0625:0.6875
1562064045668661:0:-3:-7:-4:0:-1:-1:-1:-0.531738:-0.816895:0.288574:1.5:-0.9375:2.1875
1562064045728667:-2:-2:0:0:-2:-3:1:0:-0.51123:-0.829102:0.29248:2.1875:-0.5:0.75
1562064045770672:0:-1:-1:0:0:-1:-3:-2:-0.507324:-0.825195:0.292969:-0.1875:-0.5:-1.6875
1562064045830678:-1:-1:3:-4:-1:-1:-3:2:-0.516113:-0.837402:0.289551:-0.0625:-0.75:-0.375
1562064045867681:0:1:-2:-6:-3:-1:0:-2:-0.508301:-0.827637:0.300781:0.3125:-0.125:0.6875
1562064045927687:-1:-2:6:5:0:-2:1:4:-0.516113:-0.823242:0.301758:0:0.4375:1
1562064045967691:0:0:-8:-14:-6:-5:-4:4:-0.512207:-0.833496:0.291992:-0.125:0.5625:1.0625
1562064046028697:-2:1:1:10:1:0:1:2:-0.436035:-0.820801:0.314941:-2:1.9375:1.5625
1562064046069702:-2:0:-4:-3:-4:-1:1:1:-0.583984:-0.88916:0.647461:-6.5625:0:5.5625
1562064046129708:-1:1:8:13:-9:-4:-1:4:0.0605469:-0.841797:0.748047:-7.125:-3.875:4
1562064046168711:1:-1:-4:-2:5:-1:-1:-3:-0.713867:-0.909668:0.533203:-3.4375:-0.1875:3.0625
1562064046228717:-4:-3:-1:3:5:-1:-4:-3:-1.22168:-0.900879:0.191895:-1.75:2.875:1
1562064046280723:2:-3:-23:2:-3:-2:0:-2:-1.18701:-0.821289:-0.140137:4.625:3.1875:-4
1562064046324727:1:1:2:12:9:2:0:1:-0.749512:-0.847168:0.337891:-1.5:6.5625:-2.75
1562064046373732:-1:2:-2:0:-3:2:-2:-2:-0.533691:-0.825684:0.306152:0.8125:-0.1875:0.3125
1562064046431738:2:0:-3:-6:5:0:-2:0:-0.526855:-0.81543:0.298828:-0.8125:-1.625:0.5
1562064046482743:-1:0:2:-1:2:2:1:-1:-0.525391:-0.82373:0.303223:0.1875:-2.1875:-0.3125
1562064046530748:-1:-2:-1:-1:2:-3:0:-2:-0.523438:-0.823242:0.297852:-1.5625:-2.6875:-0.3125
1562064046573752:0:3:2:7:-1:0:2:0:-0.509277:-0.82666:0.296875:-1.375:-1.5:-0.1875
1562064046633758:1:0:0:-2:-3:0:4:5:-0.507812:-0.829102:0.286621:-1.6875:-1:-0.25
1562064046685763:1:0:-4:-9:0:1:1:0:-0.508301:-0.836426:0.297363:-0.5:-0.5:-0.8125
1562064046729768:-2:-1:0:13:9:1:0:-3:-0.51709:-0.833496:0.285156:0.5625:-0.125:0.25
1562064046782773:-1:-2:-1:5:0:0:-4:-13:-0.506836:-0.824707:0.302246:2.75:1.375:0.625
1562064046830778:0:2:3:7:-3:-1:-1:-2:-0.509277:-0.830078:0.290039:-1.3125:1.625:-0.6875
1562064046873782:0:0:-1:2:3:0:-3:-15:-0.526367:-0.823242:0.294434:-0.25:1.25:0.0625
1562064046933788:0:2:0:-1:0:1:0:2:-0.525391:-0.820801:0.293945:0.125:-0.4375:0.5625
1562064046984793:0:0:-7:-6:-4:-5:-10:-6:-0.520508:-0.824219:0.293945:-1.0625:-1.125:0.3125
1562064047029798:-1:0:0:7:-7:-2:1:-2:-0.515137:-0.82666:0.302246:-0.1875:-1:-0.125
1562064047082803:-2:-5:-1:-10:0:0:2:0:-0.521973:-0.82666:0.304199:-1.0625:-1.0625:0.0625
1562064047130808:0:-1:-2:5:-7:-2:-1:-4:-0.517578:-0.82373:0.302246:-0.875:-0.375:-0.125
1562064047187813:0:1:2:15:8:2:4:0:-0.51709:-0.828125:0.296387:-1.3125:0.25:-0.6875
1562064047235818:0:4:2:-3:-5:-2:-4:-8:-0.516602:-0.820801:0.294922:-0.25:0.625:-0.25
1562064047285823:1:-1:-2:-4:0:1:1:-1:-0.51709:-0.823242:0.291992:-0.375:0.5625:-0.375
1562064047333828:0:-2:-1:-3:1:2:1:2:-0.518555:-0.822754:0.287109:-0.625:-0.4375:-0.3125
1562064047376832:0:-6:-2:8:2:0:-2:-2:-0.516602:-0.821777:0.290039:-0.1875:-0.375:-0.5
1562064047436838:-2:-1:1:11:5:0:-2:-1:-0.513672:-0.82666:0.29541:-0.4375:-0.625:-0.5
1562064047487843:2:1:-2:-4:-1:-1:1:-3:-0.515137:-0.825195:0.297852:-1.25:-0.375:-0.4375
1562064047532848:0:0:0:-2:1:-2:0:3:-0.513184:-0.831543:0.296387:-0.6875:-0.3125:-0.125
1562064047585853:0:-1:-4:-14:-2:3:1:1:-0.519043:-0.825684:0.29541:-0.625:-0.3125:0.0625
1562064047632858:0:-2:-2:15:-2:-1:-2:-5:-0.513672:-0.827148:0.291992:-0.4375:0:-0.125
1562064047691864:0:-3:-2:2:4:-3:-2:0:-0.512207:-0.821289:0.299316:-0.8125:0.1875:-0.375
1562064047735868:0:-1:1:3:-6:1:0:1:-0.518555:-0.824707:0.29541:0.5625:0.25:-0.3125
1562064047790874:-2:-1:-1:-9:3:0:-1:-3:-0.513672:-0.821289:0.295898:-0.5:0.0625:-0.25
1562064047831878:0:0:0:-1:-7:-5:-1:-2:-0.512207:-0.834473:0.296875:-0.125:0.5:-0.125
1562064047892884:-1:-2:-1:6:-4:-2:-2:1:-0.52002:-0.822266:0.296387:-0.5625:-0.1875:-0.0625
1562064047945889:-2:2:1:4:6:1:-1:-3:-0.513184:-0.826172:0.294922:0.625:0:-0.125
1562064047992894:-1:-3:-1:1:0:1:0:1:-0.511719:-0.828613:0.287598:-1:-0.625:-0.1875
1562064048035898:-1:-1:-1:2:3:-1:-1:-3:-0.516602:-0.830566:0.29248:0.5:0.0625:0.125
1562064048095904:-2:-1:-3:-8:-1:-2:0:0:-0.516113:-0.826172:0.295898:-0.3125:0:0.4375
1562064048132908:-1:1:-3:-10:-4:-3:-4:-1:-0.51709:-0.826172:0.296387:0.8125:0.6875:0.375
1562064048192914:0:-2:-1:1:-1:0:4:-7:-0.515137:-0.827148:0.297852:-0.6875:0.25:0.25
1562064048244919:-1:0:-2:2:-5:-3:-3:1:-0.520996:-0.825684:0.297363:0.625:0.6875:0.3125
1562064048290924:-1:0:-2:-1:-2:-1:-2:-2:-0.52002:-0.822754:0.30127:0.8125:-0.125:0.625
1562064048342929:2:0:-3:-3:2:1:-1:0:-0.523926:-0.825195:0.29248:0.375:-1:-0.375
1562064048395934:-1:2:1:5:-3:-1:1:0:-0.517578:-0.82959:0.290039:-1.4375:-2.125:-1.9375
1562064048447939:0:-1:0:5:-1:1:-1:3:-0.509277:-0.827637:0.30127:0:-1.875:-2.25
1562064048494944:0:0:-1:-6:4:1:-1:-3:-0.507812:-0.828125:0.297852:-1.5625:-1.375:-2.0625
1562064048538948:0:0:0:2:-5:1:3:-1:-0.505371:-0.833008:0.295898:0.8125:-0.25:-0.3125
1562064048597954:-1:-6:-5:-5:5:0:1:0:-0.50293:-0.839844:0.29541:0.125:0.25:0.6875
1562064048635958:1:0:1:-2:2:1:1:-1:-0.514648:-0.825195:0.296875:0.3125:0.625:0.9375
1562064048695964:0:1:-3:-3:-1:1:-1:-1:-0.519043:-0.823242:0.30127:0.5:-0.0625:1.0625
1562064048747969:1:2:2:5:1:0:3:4:-0.51709:-0.823242:0.30127:0.4375:-0.0625:0.875
1562064048795974:0:-1:-3:1:2:-1:2:-2:-0.521973:-0.821777:0.307617:1.25:0.4375:0.875
1562064048837978:-2:-1:2:-2:-5:-2:6:-1:-0.518555:-0.822754:0.301758:-0.6875:0.8125:0.875
1562064048897984:-1:0:-2:-12:-10:0:-3:-1:-0.521973:-0.819824:0.304199:0.25:1.5:0.5625
1562064048950990:-1:-1:-3:-13:1:0:-1:-11:-0.523926:-0.818848:0.303223:-0.875:1.125:0
1562064048995994:0:0:0:5:5:3:1:2:-0.521484:-0.822754:0.300293:0.4375:0.375:0.125
1562064049048999:1:0:-2:1:6:-1:-1:2:-0.516113:-0.824707:0.292969:-0.5:0:-0.125
1562064049101005:0:-1:-4:-14:-9:-3:-2:-3:-0.519043:-0.82666:0.30127:-0.1875:-0.25:0.0625
1562064049153010:0:0:1:-1:2:1:-1:-1:-0.515625:-0.82373:0.292969:0.1875:-0.125:0.5625
1562064049199014:0:0:-2:1:3:2:0:1:-0.522949:-0.828125:0.29834:-0.25:0.5:0.3125
1562064049251020:0:-1:-1:4:2:-2:-4:-4:-0.524414:-0.819824:0.298828:-0.125:0.5625:0.5
1562064049299024:-1:0:-2:-4:0:-1:-2:0:-0.523438:-0.812988:0.302246:0:0:0.875
1562064049341029:-1:-3:-5:-11:-1:0:-3:-4:-0.522461:-0.82373:0.30127:0:0.1875:0.25
1562064049400035:0:-3:-2:-4:2:-1:-3:1:-0.526855:-0.816406:0.297852:-1.375:-0.5:-0.6875
1562064049453040:0:-3:-2:-4:-10:0:2:-1:-0.525391:-0.820312:0.295898:-0.4375:-0.625:-1.0625
1562064049506045:-1:-2:-2:4:1:-4:0:6:-0.519043:-0.819824:0.29834:-1.4375:-0.75:-1.5625
1562064049550050:-2:-2:-6:-1:-1:2:1:-1:-0.522461:-0.82373:0.296387:-0.625:-1:-1.0625
1562064049599054:-1:-2:0:0:3:1:2:1:-0.513184:-0.830566:0.296387:-1.75:-0.1875:-0.4375
1562064049658060:1:3:3:-7:-8:-2:2:3:-0.513672:-0.827637:0.291992:-0.875:0.0625:-0.5625
1562064049704065:0:-1:0:4:1:1:0:1:-0.519531:-0.824219:0.294922:-1:-0.3125:-0.1875
1562064049753070:-2:-1:-1:-5:3:0:-1:-1:-0.518555:-0.82959:0.291504:0.75:-0.1875:0.375
1562064049802075:-2:-2:0:2:1:1:0:-2:-0.516602:-0.82666:0.29541:-0.9375:-0.625:0.1875
1562064049850080:0:-2:-1:4:3:0:1:0:-0.52832:-0.825684:0.298828:-0.125:-0.75:0.3125
1562064049910086:-1:-2:-1:-2:-2:0:-1:-1:-0.520996:-0.826172:0.296875:-0.9375:-0.4375:0.0625
1562064049956090:1:-2:-2:-2:0:-3:-2:-2:-0.515137:-0.821777:0.300781:-0.3125:-0.0625:-0.125
1562064050004095:-2:-2:-6:-1:-1:-3:-1:5:-0.520996:-0.825684:0.301758:-1.3125:0.5:-0.5
1562064050064101:-1:-1:1:0:1:2:0:2:-0.521484:-0.824707:0.292969:-0.9375:0:-0.25
1562064050113106:-1:0:-2:1:3:0:-5:-19:-0.513184:-0.832031:0.302246:-0.625:0.25:-0.25
1562064050161111:-1:-1:-1:-10:-2:0:0:1:-0.522949:-0.825195:0.291992:-0.5625:-0.5:-0.125
1562064050205115:-1:-1:-4:-3:-2:-5:0:0:-0.515625:-0.822266:0.297852:-0.25:0.375:-0.3125
1562064050255120:0:3:1:-9:-5:0:3:2:-0.518066:-0.825195:0.291016:-0.25:-0.3125:-0.0625
1562064050315126:-1:-2:0:8:4:0:1:5:-0.518066:-0.834961:0.291016:0.625:-0.8125:0.5625
1562064050363131:1:2:0:-2:-2:-4:-2:-3:-0.519043:-0.834473:0.29834:-2.75:1.4375:0.625
1562064050413136:0:1:2:12:-1:0:-1:-1:-0.513184:-0.813965:0.311035:2.75:0.875:0.5
1562064050465141:0:-2:-1:-7:-1:0:-2:-10:-0.529785:-0.824219:0.290039:-0.875:0.375:-0.125
1562064050519146:-2:-2:1:0:-2:0:1:3:-0.522949:-0.828613:0.298828:-0.25:-0.125:0.25
1562064050569151:-3:-2:-3:-7:-1:0:-2:-1:-0.522949:-0.816406:0.29541:-0.5:-0.3125:-0.3125
1562064050616156:1:0:0:-2:1:1:-2:-3:-0.523438:-0.821289:0.29834:-0.3125:0.125:-0.375
1562064050664161:-1:-1:1:4:1:-4:-3:0:-0.517578:-0.82373:0.29834:0:0.1875:-0.6875
1562064050712166:0:3:1:3:-1:0:-2:-2:-0.52002:-0.829102:0.304688:-0.375:0.3125:-0.1875
1562064050772172:-2:-4:-1:1:-3:-2:-7:-12:-0.520996:-0.820312:0.29248:0.625:-0.1875:0.375
1562064050825177:-2:-3:-3:7:1:-2:2:0:-0.516113:-0.830566:0.295898:0:0.0625:-0.4375
1562064050866181:0:2:4:0:-7:0:1:-1:-0.525391:-0.824219:0.302246:-0.4375:-0.5625:-0.125
1562064050926187:0:-1:0:-10:1:2:-1:0:-0.520508:-0.825684:0.295898:-0.75:-0.125:0.375
1562064050975192:1:1:0:-6:3:0:-2:3:-0.518555:-0.825684:0.29834:0.25:-0.5:0.375
1562064051024197:0:0:-3:1:1:2:-4:-8:-0.522461:-0.821777:0.299316:-0.25:0.625:0
1562064051073202:-1:1:2:5:-1:-2:1:0:-0.524902:-0.823242:0.29541:-0.125:-0.3125:0.5
1562064051126207:-2:-3:-1:1:-1:-1:-1:3:-0.521484:-0.821777:0.303223:0.375:0:0.0625
1562064051165211:-3:0:1:4:-1:-3:-1:-2:-0.523438:-0.820801:0.297363:-0.25:-0.25:-0.0625
1562064051225217:-1:-1:-4:0:3:0:-2:5:-0.525391:-0.821777:0.295898:0:0.25:0.0625
1562064051276222:-3:-1:2:6:-2:-3:0:-17:-0.522461:-0.824219:0.284668:-0.375:-0.75:1.0625
1562064051326227:-1:-4:-1:-5:1:-2:-9:-21:-0.526367:-0.827148:0.290039:-0.4375:-0.0625:0.8125
1562064051372232:11:-2:-4:-27:-12:-4:10:13:-0.525391:-0.829102:0.293945:-0.1875:-0.4375:2.4375
1562064051425237:1:-5:2:-34:-6:1:2:11:-0.538574:-0.817871:0.308594:7.125:-3.875:3.1875
1562064051479242:-8:-1:-1:36:-10:-2:-1:-11:-0.527344:-0.796387:0.315918:10.875:-4.125:2.875
1562064051526247:4:-2:0:39:37:-7:2:12:-0.511719:-0.816406:0.345703:3.875:4:-0.625
1562064051576252:-10:3:0:2:36:18:-10:-30:-0.523438:-0.712402:0.358398:-49.25:13.3125:11.1875
1562064051626257:-10:1:7:21:5:-11:-3:28:-0.518555:-0.825195:0.128418:-92.6875:6.25:-2.8125
1562064051681263:19:12:-12:-128:-50:-16:1:35:-0.462402:-0.745605:0.21875:58.4375:3.3125:31.1875
1562064051729267:12:1:-8:-5:-18:0:3:9:-0.517578:-0.719727:0.345215:33.9375:0.5625:3.5
1562064051778272:-7:2:5:9:26:2:-11:-7:-0.620605:-0.821289:0.263184:0.5625:1.875:-7.5625
1562064051826277:15:9:1:-10:-115:-37:27:110:-0.587402:-0.698242:0.232422:-51.75:24.8125:-5.875
1562064051876282:-27:-10:-9:-42:-73:-18:-30:-31:-0.62207:-0.924805:-0.0629883:-131.938:-12.3125:-20.625
1562064051927287:73:-2:-18:-108:-26:-4:-38:-19:-0.545898:-0.753418:0.275879:85.8125:-13.625:23.125
1562064051981293:-31:2:4:41:39:-1:-7:-12:-0.485352:-0.696289:0.406738:1:12.5:-9.625
1562064052028297:-8:1:4:-2:30:0:6:1:-0.478027:-0.848145:0.263184:-58.4375:-1:-27.875
1562064052078302:-7:0:3:7:6:1:5:-3:-0.69043:-0.897949:0.157227:3:12.625:-20.6875
1562064052129307:-1:1:5:23:5:2:-2:-2:-0.502441:-0.782227:0.313477:10.4375:-7.3125:-3.1875
1562064052184313:-1:1:16:19:21:4:-1:-6:-0.512207:-0.840332:0.273926:3.75:0:-1.5
1562064052236318:-1:-1:-2:9:-8:-7:-8:-4:-0.549316:-0.783203:0.262695:-3.4375:-3.4375:-0.6875
1562064052287323:0:0:-6:21:0:-1:-6:-7:-0.513672:-0.828125:0.305664:4.6875:1.1875:0
1562064052328327:-3:-7:-12:47:-16:-6:-3:-4:-0.519043:-0.820801:0.289551:3:0.75:-0.625
1562064052401335:-2:-2:14:10:-1:-2:4:-14:-0.524414:-0.827637:0.280273:1.75:-0.5:-1.4375
1562064052438338:-3:-1:-5:-1:-2:-1:-2:6:-0.212402:-0.716309:0.0380859:4.9375:-3.625:-2.125
1562064052489343:0:-2:0:8:0:2:3:-4:-1.12012:-1.01416:-0.456055:5.625:-2.875:0.3125
1562064052528347:-1:1:23:3:-3:-2:-5:-7:-0.758301:-0.834473:-0.335449:-0.8125:-1.5625:-0.5625
1562064052588353:-1:-3:-4:-25:-4:-3:-4:-1:-0.340332:-0.799316:0.32666:1.25:5.6875:-0.6875
1562064052640359:0:4:17:-3:-4:-1:3:-2:-0.521484:-0.839355:0.285645:-0.1875:0.3125:0.125
1562064052688363:1:-2:-4:-5:2:3:-1:-1:-0.602051:-0.820801:0.322754:3.75:1.0625:-1.6875
1562064052737368:-1:-3:-5:-3:3:1:1:-4:-0.179199:-0.869141:0.73877:-0.4375:0.75:-0.625
1562064052790374:1:1:3:-7:-1:-3:-3:-3:-0.520508:-0.82959:0.289551:0.3125:-0.4375:-0.1875
1562064052827377:-1:1:-1:5:3:0:-1:0:-0.521484:-0.821777:0.29248:-0.4375:-0.5625:-0.25
1562064052887383:-2:-3:2:3:-1:-2:-1:-2:-0.525879:-0.814941:0.295898:0.6875:-0.8125:-0.4375
1562064052941389:0:3:13:-2:0:0:3:4:-0.522949:-0.825195:0.289551:0.5625:-0.5:-0.5
1562064052988393:-1:1:-4:-27:-2:-1:-1:3:-0.524414:-0.820312:0.29541:0.0625:-0.875:-0.75
1562064053046399:3:7:19:7:2:1:-2:1:-0.526367:-0.820801:0.297852:-0.5:-0.625:-1.0625
1562064053090404:-1:-1:-3:-4:3:-1:-3:7:-0.522461:-0.820801:0.295898:-0.5:-0.5:-1
1562064053144409:-1:0:1:-7:-1:0:-7:-18:-0.516113:-0.828125:0.30127:0.25:-0.875:-0.5625
1562064053188413:-1:-2:-5:1:-4:-1:1:8:-0.518555:-0.82373:0.30127:1.0625:0.375:-0.1875
1562064053248419:0:4:9:-3:-2:-2:0:0:-0.513184:-0.830078:0.289551:1.0625:0.5:0
1562064053291424:2:6:7:-2:2:1:2:3:-0.523926:-0.821777:0.300293:-2.25:0.25:-0.1875
1562064053347429:-2:-4:-2:4:3:-2:-1:0:-0.523438:-0.820801:0.296875:0:-0.6875:0.0625
1562064053396434:-1:-1:1:-1:-7:-3:-4:0:-0.52002:-0.830566:0.287109:-1.0625:-0.25:-0.4375
1562064053443439:1:1:-1:4:1:0:-2:-4:-0.524902:-0.820312:0.291016:-0.125:-0.4375:-0.625
1562064053487443:-2:-1:1:0:1:-4:13:2:-0.523438:-0.829102:0.290527:-1.3125:-0.5:-0.5
1562064053540449:0:-2:-4:8:-1:-1:-5:1:-0.521973:-0.819336:0.297363:0.1875:-0.625:-0.375
1562064053600455:0:2:3:-3:-5:0:5:9:-0.518066:-0.82666:0.300293:-0.8125:0.25:-0.8125
1562064053647459:1:3:3:10:1:2:0:1:-0.524902:-0.828125:0.293457:0.125:0:0
1562064053690464:-2:0:4:5:-1:-2:5:0:-0.515137:-0.827148:0.293945:0.875:0:0.0625
1562064053750470:-1:-1:-2:-5:1:1:-3:-18:-0.519531:-0.824707:0.289062:0:0.0625:-0.625
1562064053791474:0:-1:-4:-22:-12:-1:-5:1:-0.520996:-0.832031:0.28418:-1.5:-0.375:-0.25
1562064053851480:0:-1:1:2:-11:-4:0:10:-0.517578:-0.820312:0.293945:0.3125:0.1875:-0.25
1562064053901485:-2:-3:-8:-3:-2:-3:-6:0:-0.52002:-0.82959:0.290527:-0.6875:0:0.0625
1562064053952490:-1:-2:-2:3:4:-1:1:0:-0.516602:-0.832031:0.290039:-0.375:0.625:0.25
1562064053990494:-1:-8:1:1:0:-3:3:0:-0.520508:-0.822754:0.294922:0.375:0.1875:0.3125
1562064054050500:0:2:-3:13:4:-2:13:6:-0.521973:-0.820801:0.288086:0.1875:0:0.0625
1562064054094504:1:1:-1:5:1:1:-3:1:-0.520508:-0.827148:0.288574:0.3125:-0.75:0.0625
1562064054154510:-3:-3:-4:-7:-14:-3:-4:-1:-0.527344:-0.825195:0.297363:-0.8125:0.0625:-0.1875
1562064054192514:0:4:2:2:-3:-1:4:3:-0.519531:-0.832031:0.291016:0.3125:0.25:0.25
1562064054252520:0:-1:-2:-4:-3:0:1:-2:-0.520996:-0.822266:0.285156:-0.0625:0.0625:-0.1875
1562064054289523:-1:1:0:-4:5:1:8:3:-0.519531:-0.827637:0.288086:0.25:-0.0625:-0.375
1562064054350530:-2:-1:0:7:-3:-2:-1:-3:-0.525391:-0.823242:0.29248:-0.375:-0.9375:-0.1875
1562064054404535:1:-2:1:-3:6:1:1:5:-0.520996:-0.822754:0.299805:-0.3125:-0.6875:-0.5625
1562064054453540:0:1:2:-9:-1:0:2:1:-0.51416:-0.828125:0.292969:0.125:-0.1875:-0.625
1562064054492544:0:1:-4:-7:1:1:3:6:-0.788574:-0.827637:0.164062:3.9375:6.1875:-3.6875
1562064054552550:2:2:5:0:-3:3:5:3:0.188477:-0.742188:0.298828:2.5:-3.5625:-1.875
1562064054606555:1:-3:-13:-5:-3:-1:0:1:0.262695:-0.797852:0.679199:-2.1875:-2.9375:1.375
1562064054653560:0:-2:-5:1:-4:-3:0:10:-0.537109:-0.903809:0.61084:-4.8125:1:3.4375
1562064054702565:-2:2:7:-1:-1:-3:-7:-8:-1.30127:-0.886719:0.100586:0.1875:3.625:0.4375
1562064054755570:0:1:3:0:1:3:3:4:-1.26807:-0.843262:-0.0644531:2.8125:2.8125:-2.0625
1562064054808575:-3:0:4:6:0:-3:-1:1:-0.516113:-0.81543:0.296875:0.3125:0.4375:0.125
1562064054852580:2:1:-22:-5:-4:0:3:2:-0.522461:-0.82373:0.296875:-0.125:-0.3125:0.125
1562064054912586:-1:1:7:1:-1:1:-2:-6:-0.524414:-0.817383:0.294434:0.1875:-0.125:-0.1875
1562064054955590:-1:0:0:-2:1:1:-1:1:-0.516113:-0.82959:0.291992:-0.25:-0.875:-0.1875
1562064055011596:-1:-2:-6:-8:0:1:-1:-3:-0.52832:-0.824707:0.297852:-1.4375:-0.4375:-0.5
1562064055055600:-1:0:-3:-14:2:2:1:1:-0.527832:-0.823242:0.293945:0.9375:-0.75:-0.1875
1562064055115606:-2:-1:-2:-1:1:1:3:3:-0.514648:-0.821289:0.29541:-0.1875:-0.25:-0.0625
1562064055152610:0:-2:1:-13:-20:-4:1:7:-0.516602:-0.829102:0.291504:-0.5:0:-0.0625
1562064055213616:1:2:4:7:0:-2:-1:1:-0.521973:-0.821777:0.293457:-0.875:0:0.0625
1562064055266621:-1:1:-3:-13:-3:-1:-2:4:-0.515137:-0.823242:0.291504:0.8125:-0.125:0
1562064055316626:0:2:-1:1:0:0:3:4:-0.518555:-0.828613:0.296875:-0.5625:0.25:-0.3125
1562064055355630:4:-3:-18:-7:-3:-1:3:6:-0.521484:-0.816895:0.297852:1:0.375:0.25
1562064055415636:-1:0:-2:0:-2:-3:-5:-6:-0.519043:-0.82666:0.296875:0.125:0.4375:0.1875
1562064055468641:1:2:-1:-6:-7:-2:-9:-3:-0.528809:-0.816895:0.294434:0:-0.0625:-0.1875
1562064055516646:0:1:7:7:-1:1:-2:-4:-0.527344:-0.823242:0.293457:-0.75:-0.5625:-0.25
1562064055565651:1:4:1:6:-1:-1:4:1:-0.521973:-0.820312:0.296875:-0.0625:-0.875:-0.375
1562064055616656:1:-1:1:3:-6:-2:0:2:-0.520996:-0.822754:0.287598:-0.625:-0.25:-0.375
1562064055671662:-3:0:16:-13:-1:0:-2:-3:-0.518555:-0.821777:0.299316:-0.375:0:-0.25
1562064055715666:0:-1:-6:-3:1:0:1:2:-0.523926:-0.825195:0.299316:-0.125:0:-0.125
1562064055767671:-1:1:-6:-14:2:-2:-3:-8:-0.518066:-0.817871:0.293945:-0.5:-0.5625:0
1562064055816676:-2:4:-1:22:1:2:2:-11:-0.518555:-0.82959:0.290039:-0.375:-2.3125:1.625
1562064055857680:-3:-3:0:-19:3:0:3:7:-0.517578:-0.833984:0.286133:0.3125:-0.875:2
1562064055918686:1:1:2:-43:15:6:16:8:-0.544434:-0.814453:0.28418:6:-10.875:5.3125
1562064055970692:21:6:8:-11:16:-2:-7:5:-0.52002:-0.824219:0.323242:3.4375:0.1875:2.5
1562064056014696:4:7:12:70:-24:3:2:1:-0.529785:-0.82959:0.345215:0.5:-1.25:5.125
1562064056068701:-1:-2:1:37:-17:-21:-1:-43:-0.484863:-0.888184:0.38916:-27.9375:9.5:-0.0625
1562064056118706:17:-17:6:14:121:54:22:-47:-0.566895:-0.691406:0.192383:-44.0625:45.625:3.3125
1562064056174712:-18:3:-5:16:12:2:1:3:-0.336426:-1.4541:0.375:-90.625:-2.625:-6.625
1562064056217716:-6:11:6:12:-10:8:18:29:-0.492188:-0.661133:0.21875:17.75:-6.625:19.6875
1562064056271722:-9:-2:10:42:0:12:13:16:-0.470215:-0.771973:0.439453:61.3125:-3.375:8.625
1562064056318726:-16:-3:-4:-64:3:8:9:17:-0.631836:-0.695312:0.230957:-11.9375:0.5625:-18.0625
1562064056367731:-5:-7:-17:-12:75:77:33:49:-0.507812:-0.806152:0.285645:-38.375:21.25:-4.125
1562064056419736:1:3:1:-121:4:-1:-15:2:-0.572266:-0.903809:-0.00488281:-91.375:-8.5:-24.625
1562064056476742:-16:-10:-13:-53:-43:-17:-13:2:-0.42334:-0.797852:0.34082:57.1875:11.5:19.9375
1562064056517746:11:5:1:-1:6:0:-3:-3:-0.580566:-0.713867:0.249512:34.3125:-10.25:-9.375
1562064056577752:6:-1:-14:-1:12:8:9:-1:-0.575195:-0.834961:0.293457:-38.3125:3.75:-12.1875
1562064056618756:-2:-6:-17:8:3:-1:4:-4:-0.537109:-0.864258:0.207031:-1.1875:0.9375:-5.625
1562064056677762:1:-1:-3:-18:-10:-2:0:-2:-0.543457:-0.780762:0.27832:10.25:-7.8125:-0.9375
1562064056720767:11:-5:3:-3:-1:-4:-2:3:-0.516602:-0.861816:0.29541:-2.25:-1.625:-3.5
1562064056772772:-2:0:-5:-25:-14:0:-5:-1:-0.544922:-0.796875:0.265137:6.5:-4.5:-2.375
1562064056817776:-9:-6:1:-14:-11:-5:-3:-7:-0.512695:-0.86084:0.301758:-1.1875:1.0625:-1.875
1562064056877782:2:2:3:-35:0:1:2:7:-0.528809:-0.808105:0.283691:6.375:1.0625:-2.3125
1562064056917786:0:2:26:14:6:3:-7:2:-0.524902:-0.839844:0.27002:0.5:-0.9375:-0.9375
1562064056978792:-1:-5:2:9:5:0:5:10:-0.533691:-0.837402:0.286133:-1.1875:-1.0625:0.25
1562064057020797:2:1:19:-4:9:1:0:2:-0.528809:-0.820801:0.288086:0.8125:-1.625:-0.1875
1562064057073802:-3:-3:-1:-3:-5:0:1:9:-0.524414:-0.82373:0.286133:1.9375:-0.8125:-0.9375
1562064057132808:2:1:7:6:5:0:0:1:-0.527832:-0.831543:0.289551:-0.9375:-0.3125:0.0625
1562064057178812:0:1:-7:2:-8:-4:1:-6:-0.526855:-0.826172:0.290039:1.6875:-0.375:0.25
1562064057232818:-3:-1:0:2:-2:-2:-1:-4:-0.520508:-0.829102:0.288574:0.5:0.375:-0.25
1562064057278822:-2:2:2:-17:-14:-4:-3:3:-0.523926:-0.82373:0.285645:-0.125:-0.3125:0.125
1562064057319826:-2:-2:-5:7:-5:-1:2:8:-0.525879:-0.828125:0.29248:0.3125:-0.125:0.125
1562064057380833:-1:-3:4:-10:-4:0:0:4:-0.524902:-0.824707:0.290039:0.9375:-0.625:0.0625
1562064057432838:-5:-6:-8:-3:-4:-5:-5:0:-0.521973:-0.825684:0.288574:-0.4375:0.125:0.625
1562064057477842:0:1:-2:3:-1:0:7:2:-0.526367:-0.818359:0.291992:0.4375:0.625:0.25
1562064057533848:0:1:-3:5:-5:-4:-7:-1:-0.529297:-0.825195:0.297363:0.4375:0:0.4375
1562064057582853:1:2:4:1:3:2:-3:-11:-0.524414:-0.82373:0.286133:0.125:0.5:0.0625
1562064057635858:1:0:-3:-7:5:1:-2:3:-0.533691:-0.816895:0.293457:-0.125:0:-0.25
1562064057680863:-2:-1:-1:6:1:1:2:5:-0.529785:-0.820312:0.290527:-0.5:0:-0.0625
1562064057732868:-1:-2:2:2:-2:0:3:2:-0.530273:-0.819824:0.287598:-0.25:-0.4375:-0.25
1562064057783873:1:-1:1:-3:1:-3:9:2:-0.522461:-0.828125:0.289551:0.125:-1.125:-0.0625
1562064057822877:-1:-4:-3:3:-2:-2:-7:0:-0.526367:-0.821777:0.290039:-1.25:-0.4375:-0.4375
1562064057883883:-2:0:2:3:-1:-1:-3:-1:-0.524414:-0.822754:0.288574:1:-0.375:-0.5625
1562064057934888:-4:-3:-9:-4:-1:-2:-2:-3:-0.523438:-0.829102:0.289551:-0.75:-0.6875:-1.1875
1562064057979892:-3:-2:3:-3:-2:-3:-2:0:-0.523438:-0.826172:0.29248:0.0625:-0.1875:-0.75
1562064058024897:-1:-2:-10:2:5:-1:0:5:-0.518066:-0.824219:0.296875:-0.75:-0.5:-0.4375
1562064058081903:1:-1:0:-2:-3:-1:1:7:-0.522461:-0.825195:0.29248:-0.0625:0:-0.8125
1562064058122907:-1:-1:-6:-9:-4:-1:0:1:-0.527832:-0.825684:0.293457:-1.3125:0.0625:-0.6875
1562064058182913:-1:0:-2:-8:-5:-1:4:3:-0.51709:-0.827148:0.286621:-0.625:-0.1875:-0.125
1562064058235918:-1:0:-1:4:1:2:-3:-1:-0.52002:-0.823242:0.287598:-1.375:-0.0625:-0.0625
1562064058279922:-2:1:-6:-4:3:3:0:-1:-0.522949:-0.823242:0.293457:0.125:0.1875:0.1875
1562064058335928:2:0:-4:-8:-1:1:-4:4:-0.518066:-0.825684:0.284668:-1.4375:-0.3125:-0.3125
1562064058380933:-1:-2:-6:-4:-1:-1:0:4:-0.521973:-0.825684:0.291504:0.3125:-0.4375:0.1875
1562064058439938:0:2:3:-5:-6:-2:-3:-1:-0.519531:-0.828125:0.285645:-0.75:-0.1875:-0.0625
1562064058483943:-2:-2:1:7:-4:-1:-1:-3:-0.515625:-0.823242:0.289062:-0.125:0.3125:-0.5
1562064058534948:-3:-4:-7:1:-2:-4:0:-5:-0.525391:-0.820801:0.288574:-1:-0.625:-0.875
1562064058579952:0:1:-1:-6:2:-1:-5:0:-0.515137:-0.825195:0.288574:-0.3125:-0.875:-0.9375
1562064058640959:-1:-1:2:3:-2:-3:-7:-5:-0.51416:-0.833984:0.29248:-0.1875:-0.125:-1.0625
1562064058684963:-2:-1:-1:2:-3:0:3:7:-0.52002:-0.828125:0.295898:-0.0625:-0.75:-0.75
1562064058737968:0:-2:-1:-5:-1:0:-4:-3:-0.51709:-0.830078:0.291504:0:0.125:-0.25
1562064058783973:0:3:6:7:4:0:-1:2:-0.519043:-0.828125:0.29541:0:0.1875:-0.4375
1562064058835978:0:0:-3:-3:-1:-1:-2:-15:-0.517578:-0.833496:0.291992:0.5625:-0.0625:0.3125
1562064058888983:-1:-2:-7:-8:-8:0:4:1:-0.516113:-0.827148:0.291504:0:0.625:0.3125
1562064058943989:1:1:2:0:2:1:-1:2:-0.518555:-0.829102:0.288086:0.25:0.1875:0.125
1562064058984993:0:-4:-5:-3:1:-1:-2:6:-0.519531:-0.82666:0.293945:0:0.3125:0.0625
1562064059037998:-2:-2:-7:-2:-2:-3:6:-3:-0.523438:-0.829102:0.290527:0.375:0.3125:0.3125
1562064059083003:1:1:-5:-5:-1:-1:-4:0:-0.518066:-0.829102:0.293457:-0.125:0.3125:0.4375
1562064059143009:-2:-2:-11:-3:0:1:2:-3:-0.515137:-0.828125:0.288086:1.1875:0.375:0.375
1562064059184013:2:1:-14:6:6:1:1:-1:-0.521484:-0.827637:0.29248:0.5625:0.3125:0.0625
1562064059244019:1:0:1:1:-1:-1:-1:1:-0.525391:-0.825684:0.293457:1.75:-0.375:-0.1875
1562064059286023:-1:-3:4:-8:-2:-3:-3:-2:-0.51416:-0.833496:0.293457:-0.3125:-1.0625:-0.4375
1562064059346029:-2:-1:-3:-18:-12:-2:-1:1:-0.516113:-0.82373:0.29541:0.4375:-0.8125:-0.375
1562064059383033:-1:-1:17:12:-2:-3:-5:0:-0.518555:-0.825684:0.296875:0.375:-0.125:-0.0625
1562064059443039:0:-3:-10:0:-4:-1:-2:-3:-0.515137:-0.822266:0.291992:0.0625:0.1875:0.0625
1562064059495044:0:-4:5:5:4:3:4:5:-0.518555:-0.830078:0.290527:0.1875:0.125:-0.0625
1562064059540048:1:0:-6:-3:0:0:-4:-4:-0.526367:-0.823242:0.291504:0.0625:0.125:0.375
1562064059585053:-2:0:12:-6:-2:-3:-2:7:-0.516113:-0.821289:0.293945:0.5:-0.0625:0.375
1562064059646059:-1:-1:-3:-4:0:1:0:-3:-0.522949:-0.825195:0.294922:-0.4375:-0.1875:-0.1875
1562064059698064:-2:0:-4:-5:2:-3:-1:-2:-0.520996:-0.825195:0.300293:0.875:0.4375:0.5
1562064059747069:-2:-2:2:0:0:1:1:1:-0.51709:-0.822266:0.298828:0:0.0625:0.5625
1562064059789073:-1:-4:6:-2:-2:-4:-5:-1:-0.520996:-0.821289:0.293945:0.125:0.5625:0.3125
1562064059848079:-1:-2:-4:-3:2:-2:-4:-5:-0.520508:-0.819336:0.29541:0:0.3125:0.1875
1562064059901085:0:0:0:-8:-4:-3:2:0:-0.519531:-0.820801:0.29248:0:0:0.25
1562064059945089:-1:-3:7:-17:-13:-3:-9:-10:-0.520508:-0.824707:0.294434:0.25:0.125:0
1562064059998094:-2:-6:-7:6:1:-1:1:-1:-0.519531:-0.818359:0.303223:0:0.3125:0.375
1562064060046099:0:-1:-2:-2:-2:-1:2:7:-0.520996:-0.820801:0.29834:0:0.1875:0.375
1562064060089103:-1:-5:-1:2:-6:-1:1:3:-0.526855:-0.825684:0.29248:-0.375:0.3125:0.5
1562064060148109:2:1:0:-3:1:-1:4:10:-0.522461:-0.82373:0.296875:0.25:0:0.9375
1562064060200114:-3:-4:-2:-18:-6:0:-2:-3:-0.51709:-0.824707:0.293945:0.125:0.375:0.5
1562064060246119:-2:-2:-3:1:-5:-2:-2:-3:-0.534668:-0.815918:0.296875:-0.8125:0.1875:0.0625
1562064060298124:1:-1:4:5:-2:-2:-1:-5:-0.528809:-0.817383:0.296875:0.4375:0.375:0.4375
1562064060346129:0:2:-3:4:-2:-1:0:2:-0.521484:-0.822266:0.296875:-0.375:0.4375:0
1562064060403135:-2:-4:-11:-6:-3:-3:-7:-10:-0.525391:-0.819336:0.296875:-0.75:0.5625:-0.5
1562064060448139:1:1:0:0:3:2:2:3:-0.52832:-0.824219:0.291016:-0.8125:0:-0.5625
1562064060501145:0:-1:-4:-3:-1:0:4:6:-0.519531:-0.82373:0.29834:0.25:0:-1.0625
1562064060545149:-2:-2:-3:-2:-4:-1:-3:-3:-0.520508:-0.822754:0.29541:-0.5:-0.3125:-0.5
1562064060606155:0:-4:-1:-4:-1:1:2:3:-0.522949:-0.819824:0.292969:-0.1875:-0.125:-0.0625
1562064060651160:0:1:-3:-2:1:1:4:3:-0.519531:-0.825684:0.301758:-0.0625:-0.375:-0.4375
1562064060703165:-2:-4:-14:-12:-3:-1:0:0:-0.524902:-0.821777:0.296387:-0.625:-0.9375:-0.75
1562064060748169:2:3:3:18:2:3:3:-1:-0.518555:-0.820312:0.290527:-0.9375:-0.8125:-0.125
1562064060808175:1:1:3:-16:9:1:-7:5:-0.51709:-0.831055:0.300293:-0.8125:-0.25:-0.125
1562064060848179:0:1:10:-15:-5:-2:-3:0:-0.519043:-0.822266:0.294434:0.125:0.75:0.375
1562064060906185:3:0:-20:-4:-1:0:0:9:-0.522949:-0.817383:0.296387:1.5625:0.0625:0.8125
1562064060951190:-2:-5:-5:-8:4:-2:1:1:-0.523438:-0.824707:0.29248:-1.5625:0.25:-0.25
1562064061004195:0:-3:11:1:-12:-1:3:7:-0.524414:-0.818848:0.289551:-0.3125:0.5625:-0.1875
1562064061048199:-2:0:5:2:-5:-2:0:-3:-0.526367:-0.819824:0.294922:-0.5625:0.4375:-0.3125
1562064061108205:0:-1:3:-9:-24:-8:-4:0:-0.521484:-0.827148:0.292969:-2.1875:0.375:-0.5
1562064061148209:-2:-2:-1:-11:-12:-1:-1:1:-0.523438:-0.821777:0.290039:-3.125:0.375:-0.0625
1562064061208215:-4:-7:-9:-18:-27:-13:-9:-3:-0.526367:-0.831543:0.286621:-4:-0.5:1
1562064061251220:-5:-3:-2:65:13:-7:-11:7:-0.530762:-0.839355:0.25:-4.5625:-3.5:4.4375
1562064061303225:-10:8:9:97:-7:5:4:12:-0.536133:-0.824707:0.280273:15:-10.4375:5.625
1562064061348229:52:2:-3:-60:20:7:5:2:-0.461914:-0.796875:0.364746:-2.125:-2.5:3.25
1562064061409235:19:10:27:16:-53:-44:7:32:-0.501953:-0.825684:0.342285:-1.6875:14.5:-0.875
1562064061461241:12:2:-4:-3:-94:-2:48:-17:-0.745117:-0.671875:-0.105469:-79.1875:23.875:-10.4375
1562064061505245:-13:-7:-10:-20:79:45:15:8:-0.525879:-0.75:0.302246:-85.625:-0.5625:-1.0625
1562064061552250:-10:-5:-3:35:-8:-1:52:15:-0.558594:-0.844727:0.181152:20.125:-3.125:15.125
1562064061611256:2:-6:0:11:-24:-12:-8:-3:-0.532715:-0.853027:0.362305:47.5:11.5:-1.3125
1562064061663261:-18:-3:2:49:-23:-14:-15:-5:-0.612305:-0.618164:0.212891:-40.0625:2.375:-8.8125
1562064061711266:31:14:27:62:125:40:24:112:-0.478027:-0.883789:0.374023:-39.625:36:-7.5
1562064061754270:-47:-1:-17:-75:7:21:-24:-38:-0.526367:-1.21924:0.0668945:11.5625:-32.9375:8.75
1562064061813276:8:-14:-10:-91:-66:-3:15:-25:-0.480957:-0.786621:0.334961:95:1.6875:12.4375
1562064061850279:2:0:-3:-16:11:3:-6:-5:-0.53125:-0.763184:0.364746:-11.25:3.625:-12
1562064061911286:0:0:-3:-62:-7:-6:-3:0:-0.558105:-0.944824:0.185059:-23.125:-7.1875:-16
1562064061963291:-6:-5:3:10:4:1:-9:-14:-0.536621:-0.806641:0.237305:17.4375:-6.75:-8.3125
1562064062011296:0:1:13:1:0:-2:7:2:-0.515625:-0.829102:0.283203:-5.375:-4.625:-3.0625
1562064062053300:-4:0:7:9:4:-1:-2:-4:-0.54248:-0.842285:0.268066:-4.4375:-1.625:-1.875
1562064062114306:0:2:8:14:13:8:1:2:-0.51123:-0.82666:0.29248:-1.6875:-5.5:0
1562064062174312:0:-1:1:-20:4:-1:3:1:-0.756836:-0.82373:0.0185547:5.0625:-1.25:-4.125
1562064062219316:0:3:19:7:1:-3:2:1:-0.386719:-0.729492:0.13623:0.625:2.625:-4.25
1562064062271322:0:5:-4:5:-2:0:6:-4:-0.278809:-0.820312:0.927246:1.4375:0.1875:0.625
1562064062316326:0:-2:-6:-8:5:4:-2:1:-0.00537109:-0.640625:0.72168:-2.625:-1.75:1.1875
1562064062368331:1:1:4:3:0:2:6:13:-0.531738:-0.81543:0.272949:-2.1875:-3.0625:-1.3125
1562064062414336:0:0:3:11:1:-2:-1:0:-0.528809:-0.830078:0.279297:0:-0.625:-0.5625
1562064062473342:2:0:-1:5:2:1:-6:2:-0.358887:-0.873535:0.683594:-4.875:3.125:3.125
1562064062513346:1:1:-4:4:-2:-3:-1:-5:-0.664062:-0.852051:0.260742:-1.0625:-5.3125:2.625
1562064062574352:-1:-4:-3:7:3:2:-2:0:-0.52002:-0.822754:0.277344:-0.3125:-0.3125:0.3125
1562064062616356:-1:0:14:16:-1:-1:-1:-4:-0.524902:-0.826172:0.280273:1.5625:-0.0625:0.5
1562064062676362:0:2:3:14:6:-3:-2:-1:-0.528809:-0.824219:0.272461:0.3125:-0.0625:0.625
1562064062714366:-2:-1:3:-3:-5:-1:-2:-2:-0.522949:-0.822754:0.277832:0.6875:-0.0625:0.3125
1562064062774372:-2:-3:4:0:3:0:4:-3:-0.526855:-0.831543:0.27832:-0.25:0.125:0.1875
1562064062825377:-4:-1:1:-8:-11:-2:-5:4:-0.532227:-0.822266:0.281738:0.0625:0.125:0.125
1562064062873382:2:-2:-4:2:-4:2:3:2:-0.533691:-0.823242:0.282227:0.25:-0.6875:0.625
1562064062917386:-3:-2:-6:-10:0:-1:-3:-2:-0.525391:-0.830078:0.280762:-0.25:-0.1875:-0.25
1562064062976392:-1:0:-4:-7:-3:-2:-2:-3:-0.529785:-0.816406:0.282227:0.0625:-1.375:-0.0625
1562064063028397:-1:0:-1:-3:2:-3:-6:9:-0.521484:-0.823242:0.28418:1.125:-0.75:-0.6875
1562064063073402:-1:-2:-7:-2:4:0:0:0:-0.521973:-0.828613:0.278809:-0.1875:-0.5625:-1.4375
1562064063126407:-2:-3:-10:0:-3:5:12:4:-0.523438:-0.822266:0.291504:0.1875:-1.375:-1.5
1562064063174412:-1:-1:2:1:-2:-1:-11:-16:-0.521973:-0.827637:0.290039:0.3125:-0.875:-1.5
1562064063216416:0:-3:3:-9:-3:-1:-1:-1:-0.521973:-0.825684:0.289062:0.4375:-1.1875:-1.5
1562064063279422:-1:-2:8:-5:-4:-3:-2:4:-0.520996:-0.826172:0.283691:0:-1.625:-1
1562064063328427:-1:1:-1:2:-2:-2:2:6:-0.520996:-0.826172:0.286133:-1.1875:-0.6875:-0.5
1562064063376432:0:0:-3:2:-2:-3:-3:-4:-0.519043:-0.828613:0.286133:-0.25:-0.375:-0.5625
1562064063420436:-2:-2:-2:-2:3:0:12:5:-0.516602:-0.830566:0.283203:-0.8125:-0.5:-0.1875
1562064063470441:-1:-3:-3:-13:-2:-1:-2:-2:-0.518066:-0.82666:0.290039:-0.625:-0.0625:-0.3125
1562064063518446:-1:0:1:0:3:-1:-8:-15:-0.517578:-0.827148:0.28418:-0.1875:0:-0.1875
1562064063578452:-1:-1:1:5:-2:2:3:4:-0.514648:-0.82666:0.285156:0.25:-0.0625:-0.375
1562064063628457:0:-2:-5:-4:0:-3:4:7:-0.51709:-0.830078:0.28125:-0.125:0.3125:-0.5625
1562064063679462:0:1:-4:-6:-4:3:2:-1:-0.518555:-0.828125:0.275879:-0.0625:-0.1875:-0.3125
1562064063721467:-1:2:17:4:-2:0:3:5:-0.516602:-0.823242:0.289551:-0.5:0.25:-0.125
1562064063781473:0:0:2:-2:0:1:2:-2:-0.520508:-0.831055:0.282227:-0.1875:-0.3125:-0.375
1562064063831478:1:-1:-2:-14:-3:-1:-9:3:-0.508301:-0.834473:0.285156:0.1875:0.125:-0.75
1562064063879482:-4:-5:1:-4:0:0:-1:3:-0.521973:-0.827148:0.282227:-2:-0.25:-0.625
1562064063928487:0:4:0:16:5:-2:-4:-4:-0.518555:-0.827637:0.285156:0.375:0.1875:-0.0625
1562064063983493:-1:0:-22:-10:-4:-3:-1:0:-0.512207:-0.839355:0.285156:-0.625:-0.0625:-0.25
1562064064033498:-1:-1:1:-1:-1:-1:-1:4:-0.515137:-0.830078:0.284668:0.6875:-0.0625:-0.0625
1562064064081503:2:4:13:-9:2:1:0:3:-0.514648:-0.835938:0.284668:-1.0625:0.375:0.1875
1562064064130507:-1:-4:-3:0:0:-3:-6:-12:-0.515625:-0.828613:0.287109:0.875:0.1875:0
1562064064178512:1:-3:-5:-3:-3:0:2:0:-0.51709:-0.834473:0.285156:0:0.375:-0.375
1562064064239518:0:-1:-4:3:2:-1:1:-2:-0.447754:-0.854004:0.492676:-2.6875:6.75:0.4375
1562064064284523:0:2:-4:0:2:-2:-2:2:-1.32031:-0.893555:0.0185547:2.375:4.3125:-5.75
1562064064333528:1:0:-3:0:-5:-3:6:4:-1.24023:-0.915039:0.21875:-0.875:3.5:1.8125
1562064064381533:2:-2:26:10:3:2:3:5:-0.694336:-0.768066:-0.122559:4.8125:-0.5:-3.3125
1562064064430537:-2:-1:-7:1:-5:-1:-2:-4:0.229004:-0.762207:0.480469:0.8125:-3.75:-0.6875
1562064064481543:-2:-2:9:1:-4:-3:-2:-5:-0.402344:-0.897949:0.673828:-5.25:0.5:3.9375
1562064064537548:-1:-2:-6:-3:-2:-2:-3:-5:-0.474609:-0.835449:0.291504:0.75:-2.875:-0.5625
1562064064584553:0:0:-4:-4:0:-1:0:-7:-0.522949:-0.836914:0.290039:0:0.5625:0.125
1562064064633558:0:-4:-7:4:1:-2:-3:2:-0.519043:-0.828613:0.293457:0.125:0.125:0.3125
1562064064680562:0:0:-7:-12:-4:1:8:3:-0.516602:-0.838379:0.288086:0:-0.125:0.125
1562064064741569:-3:-3:-2:-5:-1:-4:-4:-1:-0.522461:-0.820801:0.291992:-0.625:-0.375:-0.3125
1562064064790573:-1:-5:-17:-2:1:1:1:3:-0.522949:-0.833984:0.289062:-0.375:-0.4375:0.0625
1562064064842579:-5:-2:13:4:-14:-4:-5:1:-0.516113:-0.829102:0.285645:-0.375:-0.4375:0.1875
1562064064883583:1:-1:-7:6:8:4:1:-9:-0.516602:-0.829102:0.28418:0.5625:-0.625:0.4375
1562064064932588:-2:-1:-5:-9:-2:-1:-4:3:-0.519531:-0.823242:0.28418:-0.375:-1.375:0.875
1562064064992594:1:4:16:10:3:-2:3:7:-0.516113:-0.830078:0.290527:2.3125:0.5625:0.625
1562064065041599:-1:-2:-11:-2:-8:-3:0:-2:-0.522461:-0.824707:0.285645:-0.25:-0.3125:-0.3125
1562064065090603:0:0:-3:-2:5:0:13:17:-0.519043:-0.827637:0.288574:0.25:-1.1875:0.4375
1562064065143609:-2:0:-5:0:6:0:-6:-20:-0.518066:-0.820312:0.288574:-0.6875:0.0625:-0.0625
1562064065196614:-1:-1:-4:5:1:4:0:-3:-0.516113:-0.827148:0.293945:-0.25:0.5625:-0.3125
1562064065246619:-1:-1:-3:-6:-1:-3:-6:-3:-0.523438:-0.828125:0.290039:-1.1875:0.5625:-0.1875
1562064065293624:-1:-2:-12:-9:-6:-1:-6:-6:-0.526367:-0.82959:0.289062:0.3125:-0.0625:0.0625
1562064065344629:-1:-1:3:-2:-4:-3:-1:3:-0.515625:-0.830566:0.289062:-0.8125:0.1875:-0.4375
1562064065382633:-1:2:0:3:2:0:3:1:-0.521484:-0.827148:0.29248:0.125:-0.5:0
1562064065443639:-2:-3:-3:-4:8:0:3:0:-0.518066:-0.833496:0.297363:-1.0625:0.625:-0.25
1562064065496644:0:-3:1:10:2:0:-2:2:-0.519043:-0.82666:0.291992:0.75:-0.0625:0.25
1562064065548649:2:-1:-5:-14:-4:-2:-2:5:-0.520508:-0.833984:0.289062:-0.25:-0.3125:0.5
1562064065593654:1:-2:-5:-14:-1:-2:-10:-21:-0.521973:-0.82373:0.28418:-0.625:0:0.6875
1562064065644659:2:-1:2:7:5:-1:1:-1:-0.514648:-0.827148:0.291504:0.5:0.5625:-0.375
1562064065699664:1:-1:3:10:7:5:4:6:-0.522949:-0.832031:0.290039:-1.5:0.1875:-0.25
1562064065743669:-1:-2:1:12:10:2:-3:-10:-0.518555:-0.822266:0.294434:-0.0625:0.0625:0.3125
1562064065803675:-1:-2:-2:34:8:3:10:-5:-0.513672:-0.839844:0.280762:-0.5:-0.125:0.375
1562064065844679:-5:1:4:9:0:4:4:8:-0.521973:-0.836914:0.283691:-0.3125:-1.3125:2.0625
1562064065903685:4:4:5:5:9:7:5:1:-0.51123:-0.842285:0.28125:-2:-2:2.0625
1562064065952690:1:-1:0:-10:0:-2:1:16:-0.520508:-0.807617:0.300293:5.6875:1.8125:0.625
1562064066004695:1:0:-5:-14:-14:-3:-2:-4:-0.522949:-0.826172:0.290527:0.125:2.9375:-0.375
1562064066042699:-2:-1:-11:-39:-16:-7:-2:1:-0.530762:-0.810547:0.287598:-1.3125:1.3125:-0.375
1562064066102705:-12:-5:-4:62:12:-1:-5:-25:-0.51416:-0.827637:0.291992:2.6875:-1.5625:0.3125
1562064066156710:-12:3:1:-89:-5:2:5:8:-0.52832:-0.834473:0.291992:0.5:-2:0.6875
1562064066204715:-5:4:19:-44:13:11:8:13:-0.518066:-0.825195:0.280762:5.6875:-9.5625:4.8125
1562064066245719:-3:-5:-18:17:72:-8:-6:-16:-0.515625:-0.79541:0.337891:2:6.9375:2.5
1562064066305725:-8:-5:-9:-10:22:44:16:68:-0.614258:-0.613281:0.209961:-48.9375:39.125:-6.3125
1562064066345729:-10:1:3:63:-17:-17:-8:3:-0.618164:-1.08105:0.141113:-75.0625:0:6.3125
1562064066406735:-4:-25:-13:-79:-17:-9:-34:-11:-0.532227:-0.835449:0.256836:71.8125:1.625:19.125
1562064066454740:18:8:39:33:-36:-8:4:8:-0.463867:-0.737793:0.383301:43.3125:2.9375:-1.8125
1562064066506745:74:8:-59:7:114:24:2:12:-0.492188:-0.765137:0.220215:-65.75:12.625:0.6875
1562064066545749:-13:-6:-3:50:-2:-12:22:-49:-0.73584:-1.01318:0.253906:-15.5625:-10.75:-36.3125
1562064066605755:-16:0:6:-65:8:16:20:-11:-0.479492:-0.73584:0.244141:140.625:-21.75:36.125
1562064066645759:28:8:0:-32:5:-12:6:9:-0.569824:-0.532715:0.428223:47.875:-4:3
1562064066705765:-9:-2:3:34:13:13:10:4:-0.571289:-0.866211:0.135254:-47.625:-8.9375:-19.75
1562064066755770:3:3:-1:1:-12:-2:-3:-3:-0.634277:-0.91748:0.17627:28.1875:15:-11.5625
1562064066808775:-7:3:16:-14:-3:2:-4:-2:-0.500488:-0.805664:0.248535:0.5:-9.75:0.6875
1562064066844779:-4:-4:-1:-32:-4:-1:0:-1:-0.506348:-0.893555:0.269043:-5.5:-4.9375:-1.4375
1562064066906785:-1:-1:-8:42:7:0:-3:-23:-0.544434:-0.810547:0.244141:6.8125:-7.8125:-0.9375
1562064066945789:5:-1:-10:32:1:-1:-4:4:-0.49707:-0.842773:0.295898:5.6875:0.25:-1.75
1562064067006795:0:-2:0:0:0:2:5:0:-0.622559:-0.839355:0.320801:3.75:2.6875:-3.5625
1562064067055800:-2:-3:1:39:-5:-6:5:4:-1.00928:-1.00781:-0.078125:3.375:-1.125:-0.625
1562064067107805:-3:-6:17:-4:-2:-2:0:-2:0.0693359:-0.643066:0.983887:-0.0625:-0.6875:0.1875
1562064067145809:-2:0:-6:-21:-4:-3:3:1:0.0541992:-0.702637:0.933594:-0.8125:-2.125:0.0625
1562064067206815:-1:2:-2:7:-4:-1:-6:-16:-0.520996:-0.833008:0.268066:2.875:-0.4375:-0.75
1562064067259820:1:0:17:-6:1:-3:-5:2:-0.522461:-0.832031:0.265137:0.9375:-1.375:0.875
1562064067309825:3:0:-34:9:10:3:-3:0:0.00244141:-0.868652:0.759277:0.1875:-2:0.4375
1562064067347829:-4:-4:6:1:2:1:-4:7:-0.390625:-0.80127:0.22168:5.1875:2.9375:-1.25
1562064067408835:1:-2:7:-2:-4:-3:-5:-3:-0.523926:-0.834473:0.271484:1.3125:0.8125:1.125
1562064067461841:0:0:2:3:0:3:5:-2:-0.523438:-0.82959:0.266602:0.875:0.125:0
1562064067505845:0:1:6:3:-4:2:4:3:-0.533203:-0.820312:0.272461:-0.0625:-0.625:-0.125
1562064067557850:-2:-4:0:2:2:0:1:-5:-0.522461:-0.825195:0.276367:0.4375:-0.4375:-0.125
1562064067608855:-1:-1:10:0:-5:-3:-1:5:-0.520508:-0.834473:0.272949:-0.5625:-0.3125:-0.1875
1562064067664861:-2:0:-3:-4:0:1:-3:0:-0.525879:-0.82666:0.276367:0.125:-0.4375:-0.5
1562064067707865:-1:-3:-5:6:-2:-2:-2:-5:-0.524414:-0.835938:0.268066:-1.5:-0.6875:-0.375
1562064067760870:2:1:4:-4:-1:-1:-3:10:-0.527344:-0.825684:0.270508:0.6875:-1.5625:0.4375
1562064067808875:-2:0:-1:-14:-5:-1:1:1:-0.520508:-0.836914:0.274902:-0.75:-0.1875:-0.9375
1562064067868881:-2:-2:-3:1:5:3:2:8:-0.522949:-0.825195:0.275391:-0.5625:-0.375:-0.5625
1562064067918886:-3:-1:-9:3:-2:-3:-11:-12:-0.516113:-0.837402:0.272949:-1.0625:-0.4375:-0.9375
1562064067970891:1:-1:-10:-8:1:-1:1:0:-0.521973:-0.830566:0.27832:-1.5:-0.625:-0.1875
1562064068007895:-2:0:1:1:0:0:-6:-1:-0.51709:-0.833496:0.273926:-0.3125:0.3125:0.0625
1562064068068901:-1:-2:0:-3:-2:-2:-2:-3:-0.518066:-0.830566:0.272949:0:0.625:-0.25
1562064068120906:1:-1:-2:-2:1:5:0:3:-0.524414:-0.836426:0.263672:-0.75:0.4375:-0.1875
1562064068172912:0:0:2:1:-1:-2:2:3:-0.522949:-0.833984:0.270508:-0.5:-0.6875:-0.3125
1562064068210915:-1:-1:11:-5:-2:1:1:1:-0.522461:-0.829102:0.271484:0.5625:-0.125:-0.625
1562064068270921:0:0:3:4:-2:0:4:3:-0.520996:-0.82373:0.273438:0.1875:-0.0625:-0.75
1562064068324927:0:1:10:6:0:0:-1:3:-0.510254:-0.836426:0.266602:-1.625:-0.4375:-1.5625
1562064068367931:-1:-2:-8:-2:0:-1:0:0:-0.522949:-0.829102:0.277344:-1.5625:-0.5625:-1.4375
1562064068421937:-1:0:-3:5:3:-2:-2:6:-0.51709:-0.832031:0.26709:0.5625:0.0625:-0.875
1562064068471942:4:5:-22:6:-1:2:6:7:-0.513672:-0.83252:0.268555:-2.25:-0.875:-0.8125
1562064068526947:1:-2:4:-10:-2:-4:-10:-4:-0.506348:-0.839355:0.260254:0:-0.0625:-0.9375
1562064068576952:-2:-2:1:4:-2:-2:-2:-2:-0.516602:-0.839844:0.267578:-1.4375:0:-0.25
1562064068630957:1:-5:-9:0:-10:0:-1:0:-0.509766:-0.83252:0.269531:0.5625:0.75:0
1562064068670961:0:2:7:1:1:-1:1:3:-0.516113:-0.834961:0.265137:-0.5:0.1875:-0.625
1562064068730967:-1:1:1:-2:3:0:0:5:-0.515625:-0.834961:0.265625:0.0625:-0.25:-1.25
1562064068780972:0:-1:4:4:4:0:-1:5:-0.51123:-0.841797:0.271973:-1.1875:-0.9375:-1.4375
1562064068831978:-2:-3:-2:-2:0:-3:0:2:-0.507812:-0.835449:0.273926:-1.3125:-0.375:-1.5
1562064068870981:1:3:3:9:2:1:1:4:-0.516602:-0.842285:0.266113:-0.9375:0:-1.0625
1562064068929987:-1:-2:3:-3:-4:-4:1:9:-0.504883:-0.843262:0.268555:-0.375:-0.375:-0.4375
1562064068983993:1:3:8:1:2:-2:-4:5:-0.503418:-0.842773:0.266113:-1:0.125:-0.625
1562064069032998:-1:-3:-7:4:0:-1:3:-3:-0.506836:-0.844238:0.266602:0.25:0.375:-0.125
1562064069073002:-2:-1:-6:2:-2:-2:-4:0:-0.618164:-0.850098:0.226074:2:-1.3125:-1.5
1562064069134008:-4:-3:-13:-8:0:-1:-1:-2:0.352051:-0.765137:0.5:-1.9375:-3.625:5.3125
1562064069186013:0:-3:-5:4:2:0:-2:-10:0.26123:-0.773926:0.447754:0.625:-3.25:-0.125
1562064069230017:2:1:-3:-3:0:1:3:12:0.0390625:-0.847656:0.731445:-3.875:-1.0625:3.1875
1562064069284023:-2:-3:-3:-5:0:3:0:4:-1.08252:-0.936523:0.316895:-1.875:3.625:2.25
1562064069334028:-1:0:4:4:-3:-2:-2:11:-1.28711:-0.885742:-0.0678711:1.125:3.5625:-0.3125
1562064069390033:1:2:1:1:2:2:-2:-2:-0.65625:-0.884277:0.339355:-3.375:0.125:3.4375
1562064069439038:-1:-3:0:5:1:-1:-2:2:-0.513184:-0.844727:0.266602:-0.25:-0.125:0
1562064069493044:-1:1:-4:-11:-2:2:-5:4:-0.51123:-0.843262:0.26416:0:-0.3125:0.3125
1562064069546049:1:1:-2:-9:-2:-2:-5:-2:-0.510742:-0.842773:0.265625:0:-0.4375:-0.25
1562064069583053:-1:-1:4:-2:0:0:1:2:-0.51123:-0.837891:0.267578:0.0625:-0.6875:-0.0625
1562064069635058:0:-3:-7:3:-3:-2:-4:-14:-0.51123:-0.839355:0.271484:-0.25:-0.625:0.125
1562064069689063:-1:3:11:4:1:0:-1:1:-0.509277:-0.844238:0.269043:0.625:0.5625:0.6875
1562064069733068:-1:0:-2:1:0:1:10:1:-0.509766:-0.838379:0.265625:0.4375:0.875:1.0625
1562064069794074:-1:-1:2:-2:-3:0:-3:-2:-0.514648:-0.836426:0.272461:1.5:1.0625:1.625
1562064069833078:-1:3:3:-1:5:2:-2:-7:-0.512207:-0.840332:0.259277:1.375:1.125:1.375
1562064069894084:-1:-4:-3:0:-2:-1:-2:2:-0.523926:-0.833984:0.266113:-0.75:0.25:0.25
1562064069943089:-1:-4:-14:-4:-1:-3:-1:3:-0.520996:-0.838379:0.262695:0.25:-0.625:-0.0625
1562064069989093:-2:-1:1:2:-1:-1:-4:1:-0.515625:-0.839355:0.27002:-0.8125:-1:-0.125
1562064070033098:0:1:-2:-1:3:1:4:6:-0.513184:-0.844238:0.268066:0.375:-0.25:-0.25
1562064070093104:2:1:4:-3:3:5:-2:1:-0.519043:-0.837402:0.269531:-0.25:0.25:0.4375
1562064070134108:-2:0:-2:-5:-1:0:-2:5:-0.518066:-0.839355:0.270996:1.5625:0.6875:0.8125
1562064070194114:-1:-4:-8:7:4:4:3:0:-0.516113:-0.840332:0.270508:0:0.875:0.3125
1562064070240118:-1:-1:-5:3:1:1:-1:-5:-0.514648:-0.834473:0.265625:-0.5:0.625:0.625
1562064070296124:-1:-1:3:5:-6:-5:-6:-6:-0.516602:-0.835938:0.266602:0.25:0.5:1
1562064070333128:0:1:0:-5:0:-1:-3:1:-0.518555:-0.83252:0.267578:0.125:-0.5:0.8125
1562064070393134:-1:-3:-3:-4:-1:0:3:9:-0.518555:-0.833984:0.273438:-0.125:-0.0625:0.5
1562064070434138:0:-2:-1:5:4:1:2:-2:-0.514648:-0.834473:0.268066:-0.3125:0.5:0.5625
1562064070493144:0:2:13:0:-1:-1:0:1:-0.518555:-0.833984:0.273926:0.4375:0.3125:0.625
1562064070545149:0:0:1:-1:3:1:0:0:-0.525879:-0.827637:0.268555:0.3125:0.3125:0.6875
1562064070596154:-2:0:1:6:1:0:3:0:-0.517578:-0.838867:0.266113:0.4375:0.1875:0.5625
1562064070648159:1:5:17:5:5:1:1:6:-0.526855:-0.833984:0.270996:-0.75:-0.25:0.25
1562064070694164:1:-3:-5:0:-8:2:1:1:-0.516602:-0.83252:0.268555:0:-0.125:0
1562064070749169:2:0:18:6:1:1:4:7:-0.515137:-0.839844:0.273926:0.125:0:-0.3125
1562064070799174:-1:0:0:0:1:-1:11:5:-0.526367:-0.834473:0.272949:0.25:-0.0625:-0.625
1562064070851179:0:0:-1:-5:-2:-2:-2:-1:-0.516602:-0.837891:0.272461:0.1875:-0.8125:-0.5
1562064070896184:0:-3:-3:1:-3:-2:3:3:-0.515625:-0.838867:0.279297:-0.75:-1.1875:0.4375
1562064070952190:-2:0:1:-13:-6:-1:-11:-14:-0.519043:-0.839844:0.279785:0.8125:-0.1875:1.875
1562064070996194:0:-2:-4:-9:3:3:14:19:-0.520996:-0.831055:0.273438:-1.0625:0.75:2.875
1562064071056200:-1:-2:3:-4:-6:-4:-2:-5:-0.524414:-0.827148:0.270508:-0.375:1.25:2.25
1562064071098204:0:1:-2:6:-8:-6:-5:-3:-0.530762:-0.830078:0.265625:-0.5625:0.75:1.1875
1562064071158210:1:-3:-1:-2:3:1:4:5:-0.529785:-0.828125:0.272949:0.0625:0.375:0.5
1562064071196214:-1:-3:-7:-3:2:3:2:-2:-0.529785:-0.827637:0.270508:-0.125:-0.0625:-0.75
1562064071256220:-1:-6:1:3:-2:1:0:0:-0.528809:-0.829102:0.274414:-0.1875:-0.3125:-1.0625
1562064071297224:-2:-2:-1:-2:1:0:-5:-13:-0.526367:-0.832031:0.269043:-0.75:-0.375:-0.75
1562064071356230:0:-1:-2:-6:-6:-2:-1:2:-0.52002:-0.832031:0.263672:-0.4375:-0.1875:-0.4375
1562064071398234:2:2:12:-1:-7:-1:3:6:-0.528809:-0.831543:0.280273:-0.125:-0.3125:-0.25
1562064071458240:-2:-3:-3:-11:-1:-2:1:1:-0.522461:-0.83252:0.268555:-1.1875:-0.375:-0.25
1562064071510245:26:4:1:-67:7:14:3:8:-0.537109:-0.871094:0.224121:-11.5:-4.6875:3.25
1562064071556250:-22:5:10:127:-9:-7:-24:-27:-0.48291:-0.887207:0.30127:25.375:-7.25:11
1562064071611255:19:5:4:33:18:-21:25:60:-0.401855:-1.01465:0.341797:-46.0625:-2.125:0.5625
1562064071656260:89:38:24:3:-97:46:47:119:-0.44043:-0.709473:0.361328:-33.0625:44.125:25.5
1562064071699264:12:-10:4:37:-52:2:18:6:-0.48877:-0.910156:0.273926:-75.9375:-28.3125:8.5
1562064071758270:-6:-11:-25:-128:-35:-19:3:8:-0.442871:-0.802734:0.348145:75:11.6875:10.25
1562064071811275:18:-18:-1:-62:6:0:-21:-11:-0.52832:-0.851562:0.297363:-18.4375:-4.8125:-11.125
1562064071855280:-4:-4:-2:-55:-23:5:10:59:-0.57959:-0.719727:0.243164:-17.25:6.875:-8.375
1562064071904285:48:-7:15:-5:17:3:17:84:-0.55127:-0.770508:0.130859:-65.8125:40.75:-19.9375
1562064071961290:-57:-15:-34:-81:-49:-5:31:-36:-0.681152:-1.09961:-0.198242:-68.5625:-3.4375:-11.125
1562064072013296:17:-6:-5:56:12:-8:-1:3:-0.583496:-0.646973:0.306152:89.875:-0.6875:9.5625
1562064072058300:11:3:2:26:-2:2:4:8:-0.490723:-0.818359:0.330566:-15.1875:-0.625:-15.5
1562064072111305:6:3:6:8:7:5:11:11:-0.558105:-0.918945:0.147949:11.0625:-0.6875:-9.4375
1562064072159310:-3:0:5:26:-2:-3:-6:0:-0.494629:-0.844238:0.235352:7.8125:-6.8125:-2.6875
1562064072217316:-2:1:-5:-8:-14:-11:1:-1:-0.52002:-0.838867:0.251465:2.1875:-5.6875:-1.375
1562064072261320:0:-4:3:26:-1:-1:-9:-10:-0.555664:-0.846191:0.205078:-6.3125:-4.75:0.9375
1562064072323327:-1:0:1:12:13:2:-7:0:-0.189453:-0.75293:0.112305:0.5:-8.625:1.125
1562064072373332:-4:-4:-5:17:-7:-5:-3:-5:-0.838379:-0.838379:-0.317383:-2.125:0:-1.125
1562064072418336:-2:-2:11:-5:-4:-7:-10:-14:-0.871582:-1.00342:0.147461:8.6875:0.875:-1.3125
1562064072471341:-2:0:2:-33:4:0:-3:2:-0.166504:-0.879395:0.563477:-1.1875:-0.4375:1.375
1562064072518346:-4:-2:0:48:7:2:1:-16:-0.530273:-0.829102:0.244629:2:-0.8125:-0.5625
1562064072578352:1:6:10:-7:1:0:1:9:-0.528809:-0.83252:0.244141:1.4375:-1.25:-0.8125
1562064072613356:-2:-1:-11:10:1:0:7:15:-0.170898:-0.861816:0.79541:-7.8125:-5.0625:4
1562064072676362:-1:4:2:11:2:2:3:8:-0.475586:-0.80127:0.260254:2.875:1.125:0.25
1562064072718366:0:5:5:9:-1:-1:2:-2:-0.528809:-0.840332:0.245605:0.5:-1.4375:-0.125
1562064072770371:1:0:-4:-3:3:1:0:7:-0.527344:-0.82666:0.256348:2.5:-0.9375:0.3125
1562064072824377:-2:-7:5:7:-2:-1:-2:-5:-0.52832:-0.831543:0.252441:0:-0.375:-0.4375
1562064072876382:0:0:-4:-8:0:-1:1:0:-0.532715:-0.837891:0.253906:-0.3125:-0.75:-0.25
1562064072921386:-2:-1:-1:6:2:-1:5:-2:-0.524902:-0.838379:0.256836:-0.75:-0.0625:-0.4375
1562064072980392:0:-1:-8:-8:-2:0:2:6:-0.529785:-0.825684:0.255371:1.3125:-0.875:-0.1875
1562064073021396:0:-4:-6:-2:-4:-3:-4:-7:-0.526855:-0.829102:0.252441:1.75:-0.5:0
1562064073079402:-2:0:-6:-4:-4:-1:-6:-5:-0.527832:-0.833984:0.256348:-0.5625:-0.1875:-0.0625
1562064073123407:1:0:-1:7:1:-1:10:1:-0.520996:-0.834473:0.262695:-0.6875:-0.375:0.125
1562064073175412:-1:-6:-14:-2:-1:0:0:1:-0.529297:-0.833008:0.260254:0.4375:0.125:0.625
1562064073220416:-1:1:5:4:1:-2:-9:-8:-0.524902:-0.831543:0.251465:0:0.3125:0.4375
1562064073273422:0:-2:-21:-4:-2:-1:0:-2:-0.526855:-0.833496:0.259277:0.5:0:-0.3125
1562064073324427:-1:0:3:5:1:0:6:-2:-0.530273:-0.840332:0.257812:-0.3125:-0.1875:0.1875
1562064073381432:-1:-4:-17:-6:1:-3:-6:-7:-0.528809:-0.83252:0.256348:0.625:-0.5:0.4375
1562064073423437:-1:2:8:0:0:-1:-10:3:-0.524414:-0.825684:0.260254:1.625:-0.4375:0.25
1562064073475442:1:3:22:1:-1:0:-4:0:-0.534668:-0.82959:0.265625:-0.6875:-0.9375:0.1875
1562064073521446:-2:-4:-2:2:1:1:-5:-9:-0.52832:-0.823242:0.258789:0.8125:-0.75:-0.0625
1562064073580452:-2:0:-1:-1:-5:-3:2:0:-0.529297:-0.830566:0.260742:-1.1875:-1.0625:-0.625
1562064073633458:-1:0:2:3:4:0:1:0:-0.528809:-0.832031:0.255371:0.25:-0.3125:-0.0625
1562064073678462:-3:-2:3:3:-3:-3:-4:-5:-0.525879:-0.834473:0.258789:-0.5625:-0.625:-0.5
1562064073723467:-1:1:0:1:3:2:1:-5:-0.524902:-0.827148:0.267578:0.1875:-0.0625:-0.8125
1562064073782473:-1:0:-1:-1:0:2:1:2:-0.52832:-0.834473:0.260742:-0.5625:-0.5:-0.9375
1562064073823477:2:-2:-26:-2:-1:-1:1:-5:-0.524902:-0.831543:0.260254:-0.125:-0.3125:-0.1875
1562064073883483:-1:-2:6:2:-2:-2:2:13:-0.522949:-0.837402:0.256836:-0.9375:0.125:-0.25
1562064073926487:0:1:11:-2:-1:0:-2:-3:-0.524902:-0.839844:0.257324:-0.75:-0.375:-0.3125
1562064073978492:-1:-2:-3:-3:-6:-1:8:5:-0.524902:-0.833496:0.259277:0:0:-0.1875
1562064074023497:-1:-2:18:5:0:-2:-2:-5:-0.521484:-0.833496:0.261719:-0.8125:0.1875:-0.5
1562064074075502:-1:-1:-3:-1:-2:-3:-5:-5:-0.527832:-0.833008:0.263672:0:0.1875:-0.0625
1562064074124507:-1:-1:4:-9:-2:-1:3:-1:-0.521973:-0.837402:0.256836:-1.0625:0.25:-0.5
1562064074184513:0:1:0:1:1:0:-1:-5:-0.522949:-0.825195:0.26416:0.4375:0.1875:-0.5
1562064074226517:-2:-3:0:1:3:-1:3:1:-0.527344:-0.840332:0.259277:-1:0.125:-0.0625
1562064074286523:1:1:16:1:-1:-1:-1:1:-0.520996:-0.833008:0.259766:0.125:0.0625:-0.125
1562064074323527:-1:-2:2:2:-2:1:1:3:-0.521484:-0.837402:0.26123:-0.3125:0.1875:-0.25
1562064074384533:-2:-2:-3:-7:-2:-2:-3:-11:-0.416992:-0.827148:0.307617:-3.3125:1.9375:1.6875
1562064074436538:1:2:4:4:0:-2:-3:-1:-1.36279:-0.910645:0.0234375:1.75:5.0625:-5.6875
1562064074483543:-1:-1:-4:-1:2:0:3:12:-1.2417:-0.932129:0.189453:-2.4375:3.625:1.375
1562064074526547:-1:2:3:-6:-3:0:-3:-3:-1.17627:-0.847656:-0.173828:3.8125:2.625:-1.625
1562064074578552:1:-1:-5:5:2:1:-5:7:-0.54834:-0.768555:-0.15332:4.875:-0.5625:-3.75
1562064074622557:0:-1:-27:10:2:-2:-3:2:0.230957:-0.758789:0.422852:0.5625:-3.25:-0.3125
1562064074682563:-3:-7:-2:6:-5:-4:-2:-2:-0.345703:-0.780273:0.0878906:5.5:-4.3125:-1.625
1562064074736568:-2:-2:-10:0:-2:-2:-8:-15:-0.518555:-0.833984:0.259277:0.125:-0.375:0.0625
1562064074789573:-1:1:-1:0:0:-2:1:0:-0.528809:-0.837402:0.260742:-0.0625:0:0.0625
1562064074841578:-1:-2:-9:-7:0:0:-2:-3:-0.526367:-0.834473:0.26123:0.5625:0.125:0.1875
1562064074886583:-3:-3:-14:-5:-3:-3:-10:0:-0.523926:-0.834961:0.256836:0.75:0.3125:0.0625
1562064074938588:1:0:1:5:-2:-1:0:-1:-0.525879:-0.833984:0.256836:-0.3125:-0.125:-0.125
1562064074986593:0:3:5:1:1:-1:-2:2:-0.528809:-0.828125:0.259766:-0.375:-0.4375:-0.1875
1562064075043599:-1:-1:3:3:-1:0:0:-2:-0.520996:-0.841309:0.263184:1:-0.25:-0.25
1562064075088603:-1:-4:-2:1:-1:-3:2:5:-0.530273:-0.83252:0.258301:-0.625:-0.3125:-0.0625
1562064075141608:1:1:12:-1:2:0:-2:0:-0.526855:-0.837891:0.260742:1.125:0.125:0.375
1562064075185613:-3:-1:0:0:-3:-1:-1:-4:-0.521973:-0.833008:0.260742:0.25:-0.25:0.375
1562064075238618:2:4:0:-2:0:-1:0:9:-0.524414:-0.835938:0.27002:0.5625:-0.3125:0.625
1562064075286623:-2:-1:-3:-4:-1:-2:-2:0:-0.524414:-0.834961:0.257812:-0.4375:-0.625:0.5625
1562064075344629:-1:-4:2:-3:-4:-1:-2:0:-0.526855:-0.82666:0.268555:0:-0.4375:0.5
1562064075388633:-2:-2:-2:0:-1:-1:-1:2:-0.526855:-0.830078:0.26709:0.1875:-0.0625:0.25
1562064075440638:-1:-3:-4:-5:3:0:0:0:-0.526855:-0.831055:0.267578:0:0.25:0.25
1562064075485643:-1:0:5:6:1:0:-4:-10:-0.524414:-0.835449:0.266602:0.3125:0.1875:0.4375
1562064075538648:1:-1:2:3:2:1:-1:-8:-0.525879:-0.832031:0.261719:-0.5:0.375:0.4375
1562064075591653:0:0:5:4:1:0:-3:-1:-0.52832:-0.83252:0.262695:-0.625:0.125:-0.25
1562064075643659:-2:-3:-2:-1:1:-2:-1:2:-0.527832:-0.833008:0.26123:0:0.25:0.1875
1562064075688663:0:2:-3:-4:-3:0:-9:-7:-0.529297:-0.836426:0.259277:-0.1875:-0.1875:-0.6875
1562064075740668:-2:0:-3:-3:3:4:-7:-22:-0.52832:-0.835449:0.260742:0.0625:0.1875:-0.125
1562064075788673:1:-3:-1:-2:1:-3:1:4:-0.528809:-0.834473:0.27002:0:0.0625:0.125
1562064075832678:-1:1:-5:-6:-5:1:-5:-19:-0.527832:-0.833008:0.26416:0.1875:0.4375:0.375
1562064075891683:-1:0:-2:-2:-2:-2:-1:1:-0.530273:-0.831543:0.257812:-0.25:0.1875:0.125
1562064075942689:-1:-2:-5:-3:-1:-1:-4:-2:-0.522949:-0.833984:0.260254:-0.25:0.125:-0.1875
1562064075988693:0:-2:2:7:-1:1:7:-28:-0.53418:-0.833496:0.267578:-1.75:-0.875:-0.625
1562064076049699:1:0:-2:6:2:1:-1:-1:-0.527832:-0.827637:0.26123:0:-0.0625:0.125
1562064076088703:0:-1:-8:4:7:1:-3:3:-0.524902:-0.836914:0.269531:-0.1875:-0.0625:-0.9375
1562064076148709:-3:0:8:11:1:1:3:-19:-0.531738:-0.831543:0.268066:-0.1875:-0.5:-0.4375
1562064076192714:-2:-2:-2:-44:-16:-5:-9:-13:-0.532227:-0.839844:0.263672:-0.9375:-0.125:0.1875
1562064076242719:-1:2:6:-6:-5:-2:4:6:-0.523438:-0.832031:0.260742:-0.0625:-4.0625:1.6875
1562064076288723:0:-1:-4:26:-1:-5:-4:1:-0.520996:-0.838379:0.266113:-0.9375:-0.3125:0.5625
1562064076348729:-2:-2:-8:-2:-6:-3:-6:-4:-0.52832:-0.832031:0.260254:-1.5:-0.625:1.1875
1562064076401734:1:0:-2:-4:4:2:4:3:-0.519531:-0.831543:0.274414:-0.75:1:0.25
1562064076449739:-1:-3:-1:2:-12:-6:-1:1:-0.525391:-0.838867:0.263672:-2.625:0.1875:0.5625
1562064076490743:1:0:-3:7:8:4:-3:-9:-0.530273:-0.831543:0.267578:-1.625:0.125:1.125
1562064076551749:-8:-3:-22:-15:5:6:-11:-9:-0.522949:-0.839844:0.268555:-7.4375:3:2.625
1562064076602755:-8:-9:-1:25:-30:7:-13:-21:-0.504395:-0.924805:0.288574:-17.375:-0.5:1.4375
1562064076647759:-48:7:-22:-87:-30:-11:29:18:-0.493164:-0.908203:0.17627:-39.75:14.5625:-0.8125
1562064076693764:-3:-3:30:-90:54:16:-15:8:-0.48584:-0.852051:0.36084:114.25:-16.75:22.3125
1562064076754770:-14:5:6:56:79:88:-12:-83:-0.635254:-0.620605:0.277344:-39.5625:19.125:-4.75
1562064076791773:75:27:0:39:39:77:56:127:-0.614258:-0.734375:0.129883:-19.25:26.4375:-1
1562064076851779:5:2:4:108:12:-8:9:-2:-0.517578:-0.994141:0.154297:-40.375:-22.5:-6.625
1562064076903785:14:-11:-31:-128:-35:-10:-13:-18:-0.42041:-0.78418:0.362305:120.938:-11.125:8.3125
1562064076948789:-4:6:0:16:27:-2:-4:-9:-0.577637:-0.8125:0.276367:-73.5625:18.9375:-13.5625
1562064076996794:-19:-7:-19:42:109:-19:-17:-73:-0.42334:-0.839355:0.155273:-13.125:41.875:-6.1875
1562064077056800:-11:-4:-10:-78:-17:-1:6:-4:-0.480469:-1.13232:0.0878906:23.5:-21.25:15.25
1562064077105805:1:0:8:24:-3:1:4:3:-0.544434:-0.751953:0.21582:49:-9.625:5.125
1562064077154810:1:-4:-4:45:-6:-9:1:6:-0.509766:-0.820801:0.286621:10.0625:-6.8125:-6.75
1562064077203815:-2:-4:-12:14:1:-2:1:1:-0.576172:-0.835449:0.208984:13.125:0.875:-6.625
1562064077258820:-1:0:-3:-4:-6:-3:-6:-16:-0.524902:-0.860352:0.226562:3.8125:-0.6875:-2.125
1562064077308825:0:3:6:6:3:0:-1:6:-0.535156:-0.821289:0.236816:4.625:-6.125:0.5
1562064077357830:3:0:1:-1:9:0:5:9:-0.536621:-0.82959:0.24707:-0.5625:-3.8125:0.25
1562064077406835:2:5:6:-1:3:4:2:9:-0.526367:-0.833496:0.262207:-0.6875:-1.5625:-2.3125
1562064077453840:1:2:2:13:6:0:2:11:-0.535156:-0.828125:0.240234:-0.4375:-1.25:-1.75
1562064077503845:0:1:5:41:-4:-2:-10:-7:-0.527832:-0.844238:0.257324:2.0625:-0.4375:-0.375
1562064077558850:-1:-3:7:30:7:-2:-4:-8:-0.533203:-0.825195:0.242676:3.3125:-2.0625:0.8125
1562064077611855:1:1:-2:-21:4:-1:0:-1:-0.527832:-0.831055:0.260254:-0.1875:-0.9375:-0.25
1562064077655860:-1:1:5:-7:0:2:-1:-2:-0.748535:-0.844727:0.314941:2.625:3.5625:-3.125
1562064077705865:0:0:-4:-3:-8:-3:-4:-2:-0.960938:-1.02393:0.00830078:1.875:-0.625:-1.625
1562064077756870:0:2:9:-2:4:0:9:6:-1.12793:-0.999512:-0.449707:4.8125:-1.5625:-1.4375
1562064077811875:0:2:-4:-12:-4:-2:5:-6:-1.11328:-0.942383:-0.19873:0.0625:-1.6875:-0.4375
1562064077859880:1:2:1:5:-3:-2:1:-1:-0.524414:-0.831055:0.255859:2.5625:0.25:-0.8125
1562064077908885:-1:-2:-10:2:6:0:-5:-11:-0.536621:-0.829102:0.259277:-0.875:0:-0.3125
1562064077956890:-4:-4:-13:-3:-1:0:-1:-6:-0.108887:-0.815918:0.758789:0.6875:-0.25:-1.9375
1562064078008895:2:4:15:5:1:-2:-2:7:-0.685059:-0.870605:0.248535:-0.75:-4.25:-0.9375
1562064078066901:-4:-2:-9:-4:-7:-5:-6:-6:-0.527344:-0.833496:0.257324:1.0625:-0.625:-0.1875
1562064078111905:-1:-1:5:-7:-1:-1:-1:7:-0.525879:-0.834473:0.259766:0.5625:0.25:0.25
1562064078159910:-3:1:-2:-2:-3:-3:1:-11:-0.534668:-0.82959:0.258789:0:-0.1875:-0.5625
1562064078218916:0:3:-1:-9:-2:-1:1:-4:-0.525879:-0.831543:0.27002:0.5:-0.125:-0.5625
1562064078256920:0:1:0:-9:2:-2:-9:-1:-0.530273:-0.832031:0.255859:1:-1.6875:-0.3125
1562064078316926:-2:-2:-1:4:-1:0:-5:-15:-0.523438:-0.840332:0.260742:0.5625:-0.5:0.375
1562064078365931:0:-1:3:15:2:-1:7:3:-0.525879:-0.835449:0.265625:0.5:0.5:-0.0625
1562064078417936:-1:0:-2:-27:-6:2:9:9:-0.526855:-0.834473:0.263184:0.3125:-0.5:0.3125
1562064078458940:-4:-7:-1:29:6:-4:-15:-22:-0.52832:-0.834473:0.258301:1.0625:-0.75:0.25
1562064078508945:2:3:27:-34:-5:4:7:6:-0.527344:-0.825684:0.267578:1.875:-0.125:-0.375
1562064078570951:-1:-2:-2:8:1:-3:-6:-7:-0.52002:-0.841797:0.262207:-0.1875:-1.25:-0.6875
1562064078614956:0:-4:-14:-9:-3:-2:6:3:-0.529297:-0.804199:0.27832:2.5:-1.6875:-0.6875
1562064078658960:0:1:0:-24:-12:-2:-2:0:-0.522461:-0.841797:0.277344:-1.5:-0.5:-1.6875
1562064078718966:-1:-3:7:-34:-9:-5:-2:5:-0.521484:-0.823242:0.272949:-0.5625:-0.5:-0.8125
