1562062311746906:2:-1:-2:-4:0:-1:0:0:-0.327148:-0.828125:0.491699:0.1875:0.0625:-0.0625
1562062311806912:1:-2:-2:-4:0:-1:-2:-2:-0.323242:-0.821289:0.489746:-0.125:-0.3125:-0.0625
1562062311859918:1:0:-1:-1:-1:1:0:-1:-0.322266:-0.812012:0.500488:0.9375:-0.0625:0.375
1562062311907922:3:0:2:1:-3:-2:-1:1:-0.331055:-0.824707:0.496094:-2.4375:0:-0.0625
1562062311949927:-1:2:7:-1:-2:-1:-1:0:-0.322266:-0.822754:0.485352:-0.625:0.25:0
1562062312010933:-1:-2:2:2:2:0:0:-1:-0.319336:-0.835938:0.486328:-0.6875:0:0.25
1562062312047936:1:0:-2:1:0:-1:-1:-2:-0.333496:-0.817383:0.493164:-0.75:-0.1875:-0.0625
1562062312106942:2:-4:-4:-5:-1:0:-3:-2:-0.32373:-0.835449:0.490234:-0.3125:-0.125:-0.1875
1562062312159948:-4:-3:-8:-2:-3:-2:-2:-1:-0.32666:-0.823242:0.487305:-1.1875:-0.0625:-0.0625
1562062312204952:-2:1:1:0:0:-1:1:2:-0.324219:-0.830078:0.486328:0.0625:0.25:-0.125
1562062312249957:1:-1:-1:2:0:1:0:-1:-0.322266:-0.824707:0.487305:-0.0625:0:-0.0625
1562062312310963:-6:3:3:2:2:1:1:-3:-0.326172:-0.827148:0.487793:0.6875:0.1875:0.0625
1562062312362968:0:-2:-1:0:-1:0:0:0:-0.323242:-0.817871:0.490723:0:0.0625:0
1562062312410973:16:3:1:-1:1:0:-1:2:-0.324219:-0.824219:0.489258:0:-0.0625:0
1562062312453977:0:-2:-4:0:-2:-2:-1:-1:-0.324219:-0.825684:0.491699:0.0625:-0.125:0.0625
1562062312513983:-2:1:2:0:1:0:-1:-1:-0.324707:-0.820801:0.490234:0:0.0625:-0.125
1562062312550987:2:0:-4:-3:-1:-1:-1:1:-0.323242:-0.82373:0.489746:0:0.0625:0
1562062312610993:1:-1:3:-1:-1:0:0:-1:-0.325684:-0.82666:0.48877:0.125:0.0625:-0.0625
1562062312661998:-4:-3:0:2:-2:-2:-2:-2:-0.321777:-0.82666:0.494629:0.125:-0.0625:0
1562062312712003:4:0:-3:-1:0:-1:0:1:-0.323242:-0.821777:0.494629:-0.25:-0.0625:0
1562062312754007:-2:0:2:-1:-4:0:-1:-1:-0.330078:-0.818848:0.48584:0:0:0.0625
1562062312813013:-3:5:0:0:-1:-1:-1:-1:-0.320312:-0.826172:0.490723:-1.0625:-0.25:-0.0625
1562062312866018:-1:3:-1:-5:0:3:-3:0:-0.32373:-0.815918:0.48584:-6.125:-1.6875:-0.5
1562062312912023:-4:-5:-2:-3:-6:-3:-3:-2:-0.309082:-0.837891:0.47998:-3.75:-1.75:0.375
1562062312963028:-2:-3:-3:0:-3:-1:-1:-1:-0.319824:-0.824219:0.478516:-7.6875:-1.8125:0.625
1562062313016033:-1:1:-1:3:0:0:0:-1:-0.324219:-0.833008:0.480957:0:-0.4375:0
1562062313067038:0:-2:-3:-1:-1:0:2:-1:-0.322266:-0.824707:0.479492:0.125:0.5:-0.6875
1562062313113043:0:0:4:1:0:-2:-1:0:-0.319336:-0.829102:0.47998:0.25:1.375:-0.8125
1562062313165048:0:0:-1:-3:0:-1:-1:-1:-0.325684:-0.833984:0.474121:0.5625:1.5625:-0.8125
1562062313213053:-1:-1:4:1:1:0:0:-1:-0.317871:-0.834473:0.478027:0.75:0.9375:-0.4375
1562062313273059:2:-2:-6:-5:0:-3:-1:0:-0.321289:-0.835938:0.482422:0.6875:0.375:-0.0625
1562062313316063:-2:-2:-2:1:0:0:0:-2:-0.325684:-0.830566:0.483887:0.1875:0:0
1562062313368068:2:2:-1:-2:-1:-1:0:1:-0.322754:-0.831543:0.478027:0.5:0.25:-0.0625
1562062313414073:-2:-2:1:2:-1:0:-2:0:-0.324707:-0.833496:0.480469:0.6875:0.1875:-0.1875
1562062313476079:0:0:-3:-1:0:0:0:0:-0.322266:-0.833008:0.473633:0.1875:0.0625:0.125
1562062313524084:-1:2:6:4:1:0:-1:2:-0.319336:-0.831543:0.48291:0.6875:0.125:0
1562062313570089:-1:-1:-1:-3:-3:-2:-1:0:-0.325195:-0.831543:0.480469:0:-0.125:0.0625
1562062313619093:-1:-1:0:-1:-1:-1:-1:-2:-0.322266:-0.834961:0.483398:0.0625:-0.125:-0.1875
1562062313678099:-1:0:1:0:-2:-2:-2:-1:-0.328613:-0.831055:0.479004:-0.125:0:0.0625
1562062313728104:1:2:8:2:-1:2:1:1:-0.323242:-0.827148:0.476074:-0.0625:0:0.0625
1562062313776109:-3:1:-3:0:-2:-3:0:-1:-0.319824:-0.82666:0.477539:0.375:0:0.125
1562062313825114:-1:-3:-7:-3:-2:0:-2:0:-0.32959:-0.83252:0.471191:-0.5:-0.1875:0
1562062313870119:-2:-1:0:-1:0:-1:-2:-1:-0.315918:-0.828613:0.478516:0.5625:0:0.0625
1562062313930125:0:1:1:1:0:2:0:0:-0.320312:-0.837402:0.478516:-0.5:-0.0625:-0.0625
1562062313979129:0:-3:1:-2:-3:-1:-2:-2:-0.330078:-0.832031:0.476074:0.125:-0.1875:-0.125
1562062314027134:1:-2:0:-1:-1:1:0:-1:-0.317871:-0.830566:0.473633:0:-0.0625:-0.125
1562062314076139:-1:0:3:3:0:0:-1:1:-0.324219:-0.828125:0.480957:-0.0625:0:0.0625
1562062314120144:-1:-3:1:1:0:1:-1:0:-0.319824:-0.833496:0.481445:-0.125:0:0
1562062314182150:-2:-1:-4:-4:-3:-1:-2:-2:-0.325195:-0.830078:0.482422:0.125:0:-0.125
1562062314230155:3:0:0:0:-1:0:-2:0:-0.325195:-0.829102:0.481934:-0.125:-0.125:0
1562062314278159:-1:0:-4:-1:1:0:-1:-1:-0.324219:-0.825195:0.479004:-0.375:-0.0625:0.125
1562062314328164:-1:-1:0:0:2:0:2:0:-0.322754:-0.835938:0.477051:-1.5:-0.0625:0.3125
1562062314378169:-1:-2:0:1:-2:-2:0:0:-0.322266:-0.834961:0.48291:0.8125:0.0625:-0.0625
1562062314421174:4:0:3:0:-1:0:0:0:-0.318848:-0.835938:0.48291:-0.25:-0.125:0.125
1562062314481180:0:1:8:3:-2:0:-1:-1:-0.321777:-0.831543:0.477539:0.5:0.0625:0.125
1562062314531185:-1:-2:-1:1:1:-2:-1:-2:-0.321289:-0.829102:0.468262:-0.3125:-0.0625:0.1875
1562062314578189:-1:0:-5:2:0:-1:-1:0:-0.32373:-0.83252:0.484375:0.1875:0:0.125
1562062314627194:-1:0:-2:-3:-1:-1:-2:-3:-0.327148:-0.823242:0.477539:-1.0625:-0.0625:0.25
1562062314679199:0:-4:-1:-1:-2:0:2:-2:-0.316895:-0.835938:0.478027:0.1875:0.1875:0.125
1562062314734205:-2:-13:-4:0:-1:1:0:-1:-0.328125:-0.833984:0.482422:-1.375:-0.125:0
1562062314780210:0:-1:3:-2:-1:-2:-1:-1:-0.320801:-0.83252:0.475098:-0.875:-0.25:0.5
1562062314830215:0:2:-3:-4:-1:-3:0:-1:-0.314453:-0.835938:0.472656:-2.5:-0.3125:0.375
1562062314878219:2:1:4:0:-1:-1:1:0:-0.327637:-0.827148:0.475098:0:-0.125:0.1875
1562062314927224:-2:-4:-8:-4:1:-2:-3:-1:-0.317383:-0.836914:0.476074:0.75:-0.125:0.125
1562062314980230:3:2:2:0:-1:2:1:3:-0.327148:-0.828613:0.482422:0.1875:-0.0625:-0.1875
1562062315034235:0:1:2:-2:-5:0:1:0:-0.325195:-0.833984:0.479004:0.875:0.125:-0.1875
1562062315081240:-1:-3:1:-1:0:0:1:1:-0.324219:-0.831055:0.476562:0.375:0.125:-0.0625
1562062315130245:-1:0:1:-1:1:0:-2:-1:-0.324219:-0.833984:0.476562:0.1875:0.125:-0.25
1562062315190251:-1:0:4:1:1:0:0:0:-0.325195:-0.833984:0.478516:0.375:0:-0.0625
1562062315241256:-1:0:0:-1:0:1:-2:1:-0.322266:-0.839355:0.476074:0.4375:0.125:0
1562062315280260:1:1:-5:-10:-14:-4:-2:-3:-0.324219:-0.833008:0.478027:0.125:0.1875:-0.125
1562062315340266:-4:-2:-1:0:0:-2:-1:-1:-0.328125:-0.832031:0.476074:0.125:-0.125:0.125
1562062315381270:-1:0:-3:-3:-7:1:-1:0:-0.323242:-0.833984:0.477051:0:-0.1875:-0.125
1562062315441276:0:2:1:0:-1:-1:1:-1:-0.321777:-0.827637:0.481934:0.0625:0:-0.125
1562062315490281:-2:-10:-10:-8:-10:-3:0:-2:-0.318848:-0.839355:0.475586:0:-0.125:0
1562062315542286:0:2:3:0:0:0:-3:0:-0.327148:-0.834473:0.479492:0.125:-0.0625:0
1562062315579289:-1:-4:2:2:2:-1:0:-2:-0.325195:-0.831543:0.46875:-0.4375:-0.0625:-0.0625
1562062315639295:-1:2:1:4:4:1:-1:-1:-0.324219:-0.837402:0.478027:0.8125:0.0625:0.1875
1562062315693301:-1:-3:-7:-4:-16:-3:-1:0:-0.328613:-0.831055:0.470215:-1.125:-0.25:0.0625
1562062315741306:0:-1:0:1:0:0:0:0:-0.319824:-0.830566:0.477539:0.125:-0.0625:0.125
1562062315790311:0:1:3:-4:-4:0:-1:-1:-0.319336:-0.837891:0.475586:-0.6875:-0.125:0.125
1562062315843316:-1:-4:-1:4:5:-2:-1:-2:-0.328613:-0.82666:0.476074:-0.1875:-0.125:0.0625
1562062315896321:-1:0:0:1:6:1:2:0:-0.317871:-0.833008:0.475098:0.0625:-0.0625:-0.125
1562062315943326:4:-2:-3:-1:1:-1:0:-2:-0.328613:-0.827637:0.477051:-0.375:-0.3125:0.125
1562062315993331:-1:-2:-1:0:0:0:0:-1:-0.32666:-0.834961:0.479004:0.0625:0:0
1562062316044336:-3:0:2:2:-1:-2:-1:1:-0.328125:-0.833496:0.469727:0:-0.0625:0.0625
1562062316099341:-1:-12:-7:1:1:-1:-3:-1:-0.322754:-0.83252:0.476074:-0.125:-0.125:0.125
1562062316142346:-2:-15:3:1:1:-3:0:0:-0.328613:-0.828613:0.464355:-4.1875:-0.1875:1.4375
1562062316196351:-6:15:6:0:21:-4:0:-7:-0.315918:-0.830078:0.471191:-8.5:4.4375:4
1562062316243356:11:22:4:-1:-11:1:2:5:-0.313965:-0.850098:0.477539:-15.8125:8.75:4.3125
1562062316292361:-2:-39:8:0:27:-6:-2:-2:-0.340332:-0.845215:0.45752:-20.4375:9.4375:3.125
1562062316344366:-9:56:-17:-2:-13:2:-1:-35:-0.327637:-0.837891:0.465332:-36.8125:16.0625:4.75
1562062316398371:26:-38:15:3:38:-11:-1:65:-0.364258:-0.884277:0.359863:-46.5:14.1875:2.75
1562062316443376:-24:-29:-128:-4:12:-2:-9:-8:-0.367188:-0.900391:0.317871:-24.0625:10.3125:-1
1562062316495381:2:-104:72:6:88:8:-1:11:-0.362305:-0.889648:0.330566:-2.6875:4:-1.125
1562062316543386:13:102:73:18:87:17:0:19:-0.354492:-0.902344:0.332031:3:2.25:0
1562062316592391:-15:82:20:4:-4:-5:-1:-12:-0.35498:-0.888184:0.32666:1.0625:2.5:-1.375
1562062316644396:-13:-18:3:-8:-18:-2:-12:18:-0.35791:-0.888672:0.33252:2.3125:0.4375:-1.5625
1562062316699401:-53:-18:12:85:-16:-7:-2:-14:-0.397461:-0.897461:0.325684:15.5625:-9.8125:1.6875
1562062316743406:23:3:1:-12:-7:1:6:2:-0.365234:-0.905273:0.391113:23.1875:-7.25:2.4375
1562062316802412:3:-5:-7:8:-2:0:-3:2:-0.354004:-0.833008:0.40332:27.6875:-0.375:-2.0625
1562062316843416:4:4:1:-1:2:0:0:-2:-0.380371:-0.87207:0.383789:11.3125:-2.625:-4.625
1562062316893421:-1:-3:0:-1:-1:0:-2:-2:-0.350098:-0.862793:0.406738:23.1875:-10.0625:-3.875
1562062316945426:1:-3:-2:-6:1:3:-2:-9:-0.345703:-0.834961:0.432617:16.0625:-10.25:-4.9375
1562062317004432:-4:1:-4:2:0:0:-5:-5:-0.325195:-0.835449:0.466797:7.25:-4.0625:-3.4375
1562062317042436:0:1:-1:1:-1:0:0:1:-0.326172:-0.839355:0.459473:-0.8125:-1.1875:-2.6875
1562062317102442:0:0:-1:-1:0:-1:-3:2:-0.336914:-0.852051:0.442871:2.0625:-0.375:-1.125
1562062317145446:1:2:-1:-8:6:-1:-1:-4:-0.333008:-0.844727:0.45459:1.5625:-1:-0.3125
1562062317201452:0:-1:2:-1:-5:-3:-2:-3:-0.329102:-0.84375:0.451172:2:-0.625:-0.125
1562062317252457:0:-1:1:0:1:0:-1:-1:-0.333008:-0.841797:0.452637:1.1875:-0.3125:-0.1875
1562062317305462:-1:1:4:5:1:1:-6:-13:-0.331055:-0.845215:0.447266:-0.1875:-0.375:-0.25
1562062317342466:-1:-2:-6:5:0:-2:-2:-10:-0.326172:-0.849121:0.448242:1.3125:-0.5:-0.1875
1562062317403472:1:0:-1:4:2:2:1:2:-0.324707:-0.845215:0.447266:-0.375:-0.5625:-0.0625
1562062317455477:1:-2:-4:-10:1:1:0:0:-0.326172:-0.850098:0.45166:0.6875:-0.25:-0.125
1562062317506482:-2:-2:-3:-5:-3:-3:-1:-2:-0.328613:-0.84082:0.456543:0.125:-0.1875:-0.0625
1562062317544486:-1:-2:-3:-2:-3:-1:-3:-1:-0.330566:-0.849609:0.45459:0.5625:0.0625:-0.125
1562062317605492:1:1:2:2:-1:-1:-1:-6:-0.319824:-0.846191:0.454102:0.9375:0.125:-0.4375
1562062317645496:2:-1:1:0:0:2:0:2:-0.338379:-0.84082:0.456055:0.125:0.0625:0
1562062317705502:-2:1:-3:-3:-1:0:2:1:-0.32959:-0.849609:0.461426:1.375:0:-0.125
1562062317755507:0:-3:-3:0:-1:-1:-2:-2:-0.323242:-0.839355:0.447266:0.125:-0.1875:0.0625
1562062317808512:-2:-1:-3:0:-2:-3:-1:-1:-0.330566:-0.848145:0.458984:1.75:0:0.1875
1562062317860518:0:2:1:0:-1:-1:-1:0:-0.331543:-0.84375:0.453613:0.0625:-0.375:0
1562062317905522:-1:-1:1:-1:0:-1:0:1:-0.326172:-0.838867:0.45752:1.125:-0.125:0.1875
1562062317958527:0:-1:1:-1:-1:-1:-2:-1:-0.32959:-0.84668:0.459961:0.375:-0.1875:0.125
1562062318008532:-1:-3:-4:-3:-1:-1:1:-1:-0.324707:-0.848145:0.454102:0.5:-0.1875:0.0625
1562062318064538:-1:1:-2:1:-3:-1:0:-2:-0.327637:-0.840332:0.452637:0.25:0.1875:0
1562062318107542:-2:-3:0:0:-1:-1:-2:-1:-0.325195:-0.839355:0.45752:0.25:0:-0.125
1562062318161548:0:0:5:1:0:-1:-1:-1:-0.32959:-0.839844:0.456055:0.125:-0.0625:0.1875
1562062318210553:-1:0:5:-1:-1:0:-1:0:-0.328125:-0.843262:0.458984:0.25:0:-0.0625
1562062318264558:2:0:5:0:1:-1:2:0:-0.333008:-0.843262:0.45459:-0.1875:-0.0625:-0.0625
1562062318308562:-2:-1:-2:-4:-2:-3:-1:0:-0.328125:-0.84375:0.455566:0.125:-0.125:0.0625
1562062318363568:0:-1:1:-1:1:1:0:-1:-0.328613:-0.842285:0.454102:-0.1875:-0.25:-0.0625
1562062318408572:-1:-1:2:1:1:-1:-1:-1:-0.325684:-0.841797:0.451172:0.125:0.0625:-0.0625
1562062318468578:-1:1:-2:-4:-2:-1:1:-3:-0.327148:-0.842773:0.459473:-0.1875:-0.0625:0.0625
1562062318508582:-1:0:-5:-3:-2:-2:0:2:-0.330078:-0.843262:0.453613:0.0625:-0.1875:0.0625
1562062318568588:-1:0:1:-1:-2:-1:0:0:-0.320312:-0.848145:0.45752:-0.3125:-0.0625:-0.1875
1562062318617593:-1:0:0:-4:-1:0:-1:-1:-0.330078:-0.84375:0.46582:0.4375:0.125:0.125
1562062318670599:1:0:-1:-1:-2:-1:-2:-1:-0.334961:-0.850586:0.455078:-0.375:-0.1875:0
1562062318707602:-1:-2:0:-1:-1:0:-1:0:-0.323242:-0.84375:0.459961:0.375:0:0.0625
1562062318767608:0:-1:-3:0:1:2:-1:0:-0.32666:-0.845703:0.457031:0.125:-0.0625:0.0625
1562062318820614:0:0:2:0:1:0:-1:-1:-0.332031:-0.845215:0.453125:-0.1875:-0.1875:-0.0625
1562062318871619:-1:-2:0:0:-2:0:0:-2:-0.326172:-0.838867:0.459961:0.875:-0.0625:0.125
1562062318909622:-1:-2:1:1:-1:-1:-3:-1:-0.328613:-0.84375:0.458496:-0.1875:-0.0625:0.0625
1562062318970629:-1:1:1:2:-1:-1:-1:-1:-0.328613:-0.841797:0.449219:0.1875:-0.0625:0
1562062319023634:-2:-1:-1:-3:1:-1:1:-2:-0.328125:-0.840332:0.458496:0.3125:-0.1875:0.0625
1562062319067638:-2:-3:-3:-2:0:1:-1:-1:-0.32959:-0.844238:0.455566:0.0625:-0.25:0.0625
1562062319121644:0:0:3:-2:-1:-2:-2:-1:-0.330566:-0.84375:0.456055:0.125:0:0.125
1562062319172649:-1:0:1:-2:-1:0:-1:-1:-0.325684:-0.842773:0.455566:0.125:0.0625:-0.0625
1562062319209652:-1:-2:0:0:-3:-2:-3:-2:-0.328125:-0.842773:0.45459:0.125:-0.125:0
1562062319270659:-1:-3:-1:0:0:1:0:-1:-0.326172:-0.845215:0.45752:0.125:-0.125:0.125
1562062319324664:-1:0:-3:-1:-2:-1:-2:-3:-0.327148:-0.836914:0.456055:0.125:-0.0625:0.0625
1562062319370669:0:0:-1:2:0:1:-1:0:-0.323242:-0.841797:0.456543:0.25:0.1875:0
1562062319420674:-2:-1:-4:0:-1:-1:1:0:-0.327637:-0.839844:0.456543:0.1875:-0.0625:0.125
1562062319471679:0:-1:5:2:-1:-2:0:-1:-0.331055:-0.841309:0.456543:1.0625:-0.0625:0.1875
1562062319526684:0:1:3:2:1:1:-1:-2:-0.327148:-0.84082:0.458008:-0.375:-0.3125:-0.125
1562062319570689:0:-1:-1:-3:0:-2:-1:-1:-0.329102:-0.838867:0.45459:0.5625:-0.0625:0.125
1562062319623694:1:1:5:1:-2:1:1:1:-0.330566:-0.841797:0.452148:0.125:-0.3125:0.125
1562062319670699:-1:-4:-11:-6:-2:-3:-1:0:-0.326172:-0.838379:0.455566:0.1875:-0.125:0.125
1562062319720704:-1:0:0:-5:0:0:-1:1:-0.327148:-0.844727:0.456055:0.5:-0.0625:0.0625
1562062319772709:0:0:1:0:0:-1:0:0:-0.333008:-0.837891:0.462891:-0.125:-0.125:0
1562062319825714:0:3:2:-1:-1:0:0:-2:-0.32666:-0.841309:0.465332:0.8125:0.1875:0.0625
1562062319876719:0:-1:0:2:1:1:-1:-1:-0.328125:-0.843262:0.45752:-0.625:-0.125:0.0625
1562062319929724:0:0:-2:0:0:2:1:1:-0.329102:-0.840332:0.460938:0.6875:0.0625:0
1562062319974729:0:-2:-1:-4:-2:-3:-3:-2:-0.326172:-0.839355:0.459473:0:-0.0625:0
1562062320029734:-1:1:1:1:-1:2:-2:-1:-0.32666:-0.843262:0.455566:0.5:0:0
1562062320072739:-1:-1:-3:-3:0:-1:0:0:-0.330566:-0.841797:0.464355:0.0625:-0.1875:0.0625
1562062320132745:0:0:-4:-1:0:0:-1:-1:-0.325195:-0.841797:0.464844:0.25:-0.0625:0
1562062320169748:1:0:3:-1:0:-1:0:1:-0.327637:-0.838867:0.45752:-0.0625:0:0.125
1562062320230755:2:14:-1:-2:-1:-1:-1:-1:-0.331055:-0.842773:0.461426:0.125:-0.125:0.125
1562062320270759:1:-2:-2:-1:4:2:0:-2:-0.331055:-0.834473:0.45752:0.25:-0.0625:0.25
1562062320330765:0:4:-3:-4:-2:-3:-1:-1:-0.324219:-0.842773:0.456543:0.4375:-0.0625:0.25
1562062320372769:-3:-2:0:-1:-4:0:-2:-1:-0.32666:-0.84375:0.457031:0.125:0:0
1562062320432775:-1:-2:-2:0:-1:-1:-3:0:-0.330566:-0.836914:0.458496:0.25:0.125:0.125
1562062320473779:-1:0:4:4:2:0:0:-1:-0.333496:-0.84082:0.45752:0.4375:0:0.125
1562062320533785:0:0:-1:-1:-2:-1:-1:1:-0.317871:-0.848145:0.460449:-0.4375:-0.0625:-0.125
1562062320574789:-3:-4:-5:-3:-1:1:-3:-1:-0.336914:-0.831055:0.458496:-0.1875:-0.1875:0.0625
1562062320635795:1:3:0:1:1:1:0:-1:-0.323242:-0.846191:0.459961:-0.3125:-0.125:0.0625
1562062320687800:0:3:4:3:1:0:-1:0:-0.331543:-0.837402:0.462891:-0.4375:-0.1875:0
1562062320732805:0:3:2:1:1:0:1:-1:-0.325684:-0.844727:0.467773:0.0625:-0.0625:0
1562062320773809:1:0:0:-1:1:0:0:-2:-0.331543:-0.844238:0.461914:-0.6875:-0.25:-0.125
1562062320832815:0:-1:4:1:0:0:0:0:-0.320801:-0.839844:0.456055:0.6875:0.125:0
1562062320874819:1:1:-2:0:1:-1:1:0:-0.331055:-0.84375:0.463379:-0.75:-0.125:-0.125
1562062320935825:-2:-5:4:1:1:1:-1:0:-0.327148:-0.84375:0.455078:0.6875:0.125:0.0625
1562062320987830:0:-3:5:1:11:1:0:0:-0.327148:-0.838379:0.458008:0.0625:0:0.0625
1562062321033835:1:19:-2:3:9:1:-1:-1:-0.328613:-0.841309:0.457031:-0.375:0:0.875
1562062321087840:-7:-52:-7:-3:-12:-6:-2:-2:-0.330566:-0.844238:0.461426:-2.75:-0.5625:1.5
1562062321140846:-1:2:-1:1:-2:0:-2:-2:-0.320801:-0.838379:0.457031:-0.4375:0.875:2.3125
1562062321190851:1:22:-3:0:1:0:2:1:-0.338379:-0.854004:0.452637:-0.875:1.125:-0.375
1562062321235855:-4:-29:-2:-2:-8:-2:-1:-4:-0.331055:-0.840332:0.455566:-8.1875:2.875:3.3125
1562062321287860:30:-15:27:6:-4:3:11:93:-0.331055:-0.844238:0.470215:-15.4375:8.375:6.1875
1562062321332865:18:19:-25:8:18:-1:14:74:-0.353516:-0.802734:0.404297:-62.8125:16.5:3.5
1562062321392871:17:11:12:7:-4:5:12:50:-0.350586:-0.95752:0.339355:-40.25:10.1875:-0.5625
1562062321433875:9:97:-82:4:37:-4:-13:-58:-0.398926:-0.850586:0.351562:-5:13.75:-1.5625
1562062321489880:-14:-13:21:23:10:-5:-2:-35:-0.362305:-0.910156:0.30127:-8.9375:4.5625:0.5625
1562062321535885:16:32:59:-10:-18:10:8:9:-0.362305:-0.877441:0.359375:1.4375:2.8125:2.1875
1562062321594891:5:-47:18:-7:37:-5:4:37:-0.355957:-0.875488:0.351074:-3.4375:-0.125:1.5625
1562062321632895:-25:-10:-28:-24:-8:-1:-4:-15:-0.365234:-0.89502:0.340332:2.5:0.9375:0
1562062321695901:-1:9:-19:-9:-23:-5:-4:-5:-0.368652:-0.874023:0.321777:8.5:-1.625:-0.5625
1562062321737905:-5:-1:-6:-7:-1:-1:-6:-4:-0.35498:-0.87207:0.351074:21.25:0.5:0.0625
1562062321797911:-10:-45:-11:-11:-9:0:-5:-6:-0.383301:-0.854004:0.321289:32.25:-11.75:-3.375
1562062321834915:-4:1:8:-4:5:-3:-6:-4:-0.334473:-0.801758:0.458008:14.1875:5.375:0.9375
1562062321895921:0:15:4:-1:-4:0:3:-3:-0.356934:-0.890137:0.380371:-11.1875:-5.125:-2.8125
1562062321950927:3:2:2:-3:-4:0:0:-1:-0.372559:-0.847656:0.397461:20.875:-6.5:-6.4375
1562062321995931:-1:-1:-2:11:1:0:-2:-2:-0.34375:-0.871582:0.42334:11.1875:-10.1875:-1.875
1562062322037935:-2:0:-4:-4:0:0:1:8:-0.339844:-0.84375:0.434082:16.6875:-10.125:2.125
1562062322096941:1:8:4:-7:-3:0:-1:-3:-0.338867:-0.830078:0.463867:14.1875:-9.0625:1.25
1562062322150947:0:1:0:4:-5:-2:-3:3:-0.32959:-0.827637:0.470215:3.1875:-3:-2.125
1562062322194951:-1:0:5:-3:-3:-2:-2:-1:-0.337402:-0.837402:0.460938:1.3125:-1.125:-1.6875
1562062322250957:0:-2:-1:7:1:0:-2:-8:-0.338867:-0.837891:0.466797:0.9375:-1.875:-0.6875
1562062322295961:-2:-1:1:-4:-2:-1:1:0:-0.32666:-0.84082:0.46582:1.6875:-1.6875:-0.0625
1562062322352967:0:-2:-6:3:-3:-2:-1:-2:-0.32959:-0.833008:0.463867:0.8125:-1.125:-0.0625
1562062322397971:0:-2:-1:-3:0:0:-1:-1:-0.32666:-0.833496:0.472168:0.875:-1.1875:0.1875
1562062322450977:1:-1:-2:-7:-5:0:2:1:-0.335938:-0.834961:0.46582:-0.9375:-0.8125:-0.1875
1562062322494981:-1:-2:-1:13:2:0:-2:-4:-0.326172:-0.836914:0.470703:1.25:-1.5:0.125
1562062322554987:1:-1:0:1:-5:-4:-2:0:-0.337402:-0.827637:0.471191:0.125:-0.8125:-0.0625
1562062322599991:0:0:0:6:1:0:-4:-12:-0.327148:-0.84082:0.470215:-1.125:-0.1875:-0.5
1562062322652997:-1:-1:-1:-1:0:0:-1:1:-0.329102:-0.833008:0.467285:-0.375:-0.0625:-0.4375
1562062322698001:0:0:-3:-1:0:1:0:0:-0.333496:-0.833496:0.470215:0.75:0.125:0
1562062322751007:-2:-2:0:9:2:-1:0:0:-0.335449:-0.833496:0.461914:-0.8125:-0.0625:-0.5625
1562062322799011:0:0:3:1:0:-2:-1:1:-0.332031:-0.830566:0.473633:0.5625:-0.5:0
1562062322858017:1:0:2:-10:1:1:3:5:-0.331055:-0.846191:0.463867:-0.75:-0.8125:0.0625
1562062322900021:-2:-1:-2:1:-2:-2:-1:2:-0.328125:-0.832031:0.464844:-0.125:-1.0625:0.6875
1562062322960027:-1:1:2:9:-5:0:0:0:-0.324219:-0.841309:0.473145:0.1875:-0.875:0.375
1562062322998031:2:5:0:1:-5:0:2:2:-0.327148:-0.830566:0.467285:0.1875:-0.625:0.125
1562062323058037:-1:1:2:-1:4:-1:-1:3:-0.326172:-0.840332:0.469727:-0.375:-1:0.1875
1562062323110042:2:14:3:-4:-2:0:0:2:-0.328125:-0.835938:0.470215:-0.25:-0.4375:0
1562062323158047:0:9:5:0:0:0:-1:0:-0.331055:-0.833008:0.469238:-0.625:-0.0625:-0.4375
1562062323200051:0:-4:2:6:-1:-1:-2:-1:-0.327148:-0.83252:0.470215:0.0625:-0.125:-0.75
1562062323261058:-1:1:1:2:0:-1:-1:0:-0.328125:-0.833984:0.473633:0.0625:0.125:-0.5
1562062323313063:0:-5:-3:-2:-1:-2:0:-2:-0.331543:-0.842285:0.472168:-0.4375:-0.1875:-0.3125
1562062323361068:-2:1:-2:-1:-1:1:2:-2:-0.327148:-0.83252:0.470215:0.4375:0:-0.125
1562062323410072:-2:0:4:1:2:1:0:-4:-0.320312:-0.838867:0.466309:-1:-0.125:-0.5
1562062323464078:-1:-1:-2:-1:1:2:-3:0:-0.322754:-0.835449:0.469727:0.8125:0.25:-0.0625
1562062323500081:0:2:3:1:1:1:0:1:-0.332031:-0.827148:0.469727:-0.625:-0.125:-0.0625
1562062323560087:-1:0:-1:-2:-2:0:0:-1:-0.322266:-0.84375:0.469727:0.9375:0.125:0
1562062323612093:-2:-2:-4:-4:-2:-1:0:1:-0.321777:-0.833496:0.466797:-0.25:-0.1875:-0.0625
1562062323661098:0:2:-2:0:0:-2:1:-1:-0.330078:-0.838379:0.467773:0:0:-0.0625
1562062323704102:-1:-1:5:3:0:-1:-1:0:-0.319824:-0.838867:0.469238:0.3125:0:-0.0625
1562062323764108:1:-2:-4:2:-1:1:-1:-1:-0.32666:-0.833496:0.467285:-0.8125:0:-0.0625
1562062323815113:-3:-4:-4:-1:-1:-1:2:-3:-0.326172:-0.839355:0.466797:0.25:0.0625:-0.1875
1562062323861118:-1:-1:-2:-1:0:0:-1:2:-0.325195:-0.833984:0.466309:-0.3125:0:0
1562062323913123:-1:-1:0:-5:-2:-3:0:1:-0.328125:-0.836426:0.472656:0.3125:0.0625:-0.0625
1562062323961128:-1:-4:2:1:2:-1:0:-2:-0.326172:-0.836914:0.473145:-0.25:-0.0625:0
1562062324020133:-1:-1:-1:0:0:-1:1:0:-0.328125:-0.830078:0.46582:0.1875:0.125:0
1562062324063138:-1:0:0:0:-1:-4:-1:0:-0.326172:-0.839844:0.467285:-0.0625:-0.0625:0
1562062324115143:-1:-4:-1:1:0:-1:2:0:-0.326172:-0.835449:0.472168:0.25:-0.1875:-0.125
1562062324160147:0:2:2:0:-1:0:0:0:-0.327637:-0.834473:0.472656:1.1875:-0.5:0.0625
1562062324220153:1:1:0:0:-1:-1:1:1:-0.328613:-0.835938:0.470215:1.1875:-0.6875:0.3125
1562062324261158:-1:-5:-6:-1:-1:0:-1:-1:-0.322754:-0.834961:0.478516:-1.125:-0.125:-0.0625
1562062324318163:0:3:2:-1:0:1:0:1:-0.318359:-0.834961:0.472656:0.5:0.4375:-0.375
1562062324363168:-1:-3:0:1:0:-1:-1:-1:-0.331543:-0.835938:0.473145:-0.6875:-0.3125:0
1562062324415173:-2:-2:0:-2:-1:-2:-1:1:-0.321289:-0.833496:0.468262:1.5625:-0.25:0.3125
1562062324460177:-2:1:1:2:1:-1:0:-2:-0.325195:-0.835938:0.474121:-0.625:-0.0625:-0.0625
1562062324524184:-2:-1:-1:0:-2:0:-3:-1:-0.335449:-0.835449:0.474121:0.6875:0.0625:-0.125
1562062324566188:-1:-1:2:1:0:-1:-2:-2:-0.322754:-0.832031:0.474121:0.5:-0.25:0.125
1562062324626194:-3:-2:-2:1:1:-1:-1:-1:-0.328125:-0.833008:0.470215:0.4375:-0.1875:-0.0625
1562062324663198:1:1:2:1:-1:-1:-1:-1:-0.329102:-0.834961:0.477539:-0.25:0.125:-0.125
1562062324722204:1:1:4:1:1:0:0:0:-0.324219:-0.830566:0.46582:0.1875:0.125:-0.125
1562062324776209:1:2:3:2:1:-2:1:0:-0.325684:-0.834473:0.473145:0.25:-0.3125:-0.0625
1562062324823214:-1:-2:-4:-4:-1:-1:-1:-2:-0.329102:-0.828125:0.470703:0:-0.3125:0.125
1562062324866218:1:3:3:-1:0:1:1:-1:-0.325195:-0.830566:0.475098:-0.5:0:0
1562062324926224:0:-2:-4:-2:-2:-2:-1:-1:-0.329102:-0.834961:0.47168:0.5:-0.375:0
1562062324963228:-1:-3:1:-1:-3:-3:-2:-3:-0.328125:-0.83252:0.474121:0.6875:-0.4375:0.3125
1562062325025234:-1:-1:-2:-1:-2:0:2:-1:-0.330566:-0.831543:0.475586:-0.0625:-0.4375:-0.125
1562062325075239:1:-2:-3:-1:1:-1:-2:0:-0.332031:-0.835938:0.472656:-0.25:-0.4375:-0.0625
1562062325124244:1:0:0:0:-1:-1:1:1:-0.322266:-0.838867:0.476562:-0.5625:-0.5:-0.0625
1562062325165248:1:1:2:0:-4:-2:0:2:-0.320312:-0.830078:0.481934:0.5625:0.1875:-0.1875
1562062325225254:-1:0:-1:1:0:-1:-1:0:-0.326172:-0.835449:0.47168:-1.5625:0.0625:-0.25
1562062325278259:1:-1:-2:-2:0:1:0:-1:-0.322754:-0.832031:0.474121:0.4375:0.125:-0.0625
1562062325322264:0:2:3:-3:-3:-1:-1:-1:-0.319336:-0.83252:0.470215:0.125:-0.125:0.0625
1562062325375269:1:-1:5:0:1:0:1:0:-0.330566:-0.828613:0.476074:0:-0.0625:0.0625
1562062325428274:0:4:1:0:0:1:0:0:-0.323242:-0.837402:0.474121:0.875:0.0625:-0.0625
1562062325480279:-1:-1:-3:-1:-1:-1:0:0:-0.330078:-0.827148:0.476562:-0.3125:-0.3125:0.125
1562062325526284:-2:0:0:-2:-1:-2:-1:1:-0.327637:-0.832031:0.473145:0.5625:-0.0625:-0.0625
1562062325578289:0:-12:1:0:0:-1:-1:0:-0.325195:-0.83252:0.47168:-0.3125:-0.125:-0.125
1562062325626294:-5:-32:3:1:-4:0:0:1:-0.328125:-0.837402:0.474609:0.4375:-0.8125:0.75
1562062325684300:-3:3:-8:-1:1:1:-1:-1:-0.326172:-0.820801:0.47168:-0.5:-0.75:1.25
1562062325728304:-2:-10:-1:-1:2:0:3:1:-0.32666:-0.822754:0.477539:3:0.5625:0.5625
1562062325780309:-2:-16:-9:-4:-3:-1:-1:-2:-0.327637:-0.835938:0.478027:-1.375:0.125:0.25
1562062325825314:2:-1:6:4:1:2:0:-1:-0.331055:-0.827637:0.473633:1.625:-0.125:-0.1875
1562062325886320:0:5:-2:1:0:0:0:-1:-0.328125:-0.826172:0.479492:-0.375:-0.25:-0.375
1562062325925324:-6:-21:-10:1:1:-3:-2:-2:-0.32666:-0.832031:0.480957:-0.4375:0.125:-0.125
1562062325985330:0:-9:1:0:0:1:0:1:-0.334473:-0.823242:0.470703:0.6875:0:0.75
1562062326028334:0:4:3:0:-1:0:-3:-2:-0.322266:-0.835449:0.482422:0.625:0.375:0.4375
1562062326080339:0:1:1:0:0:-1:0:-1:-0.335449:-0.822754:0.470703:-1:0.25:0.4375
1562062326125344:1:12:2:0:1:-2:1:0:-0.331055:-0.835938:0.472168:1.375:0:-0.3125
1562062326177349:-3:-8:-1:1:2:1:-2:0:-0.323242:-0.833008:0.475586:0:-0.3125:-0.25
1562062326231355:-3:-21:-8:0:-1:-3:-2:-3:-0.332031:-0.82373:0.476074:0.5:0.0625:0.375
1562062326283360:-1:3:-6:-3:-1:0:-1:-1:-0.331543:-0.827637:0.470703:-0.8125:0.3125:0.3125
1562062326329364:1:-4:-1:1:1:1:1:2:-0.334473:-0.829102:0.474121:0.25:0.125:-0.125
1562062326388370:-4:-16:-5:-2:-1:-2:0:0:-0.327148:-0.830078:0.479004:-0.25:0:0.125
1562062326428374:-2:-4:2:3:0:0:1:0:-0.326172:-0.831055:0.474609:0:-0.0625:-0.25
1562062326488380:-1:5:4:1:-1:1:-1:-1:-0.329102:-0.835449:0.481934:-0.0625:0.1875:-0.1875
1562062326530384:-1:-1:-3:-1:-1:0:0:0:-0.329102:-0.832031:0.479492:0.0625:-0.125:0.0625
1562062326583390:-4:-2:-5:1:0:-1:-1:-2:-0.324707:-0.828613:0.476562:-0.1875:-0.0625:-0.125
1562062326629394:-4:-6:-7:-2:-2:-1:-3:-2:-0.329102:-0.828125:0.474121:-0.5625:0:0.25
1562062326688400:-6:-24:-2:-4:-6:-5:-5:-7:-0.331055:-0.837402:0.468262:-0.625:0.375:0.4375
1562062326728404:10:0:21:2:-42:3:-1:28:-0.296387:-0.825195:0.501953:-35.4375:10.3125:11.9375
1562062326788410:-18:-110:-104:-17:-16:-22:-15:-28:-0.344238:-0.877441:0.448242:-55.25:11.875:9
1562062326830414:13:113:43:21:-45:-2:6:14:-0.365723:-0.82959:0.325195:-46.1875:21.4375:-2.1875
1562062326890420:-3:-110:-21:6:-41:-4:4:12:-0.371094:-0.894043:0.322266:-15.125:12.8125:-2.125
1562062326943426:10:-71:55:1:68:19:4:16:-0.36377:-0.904785:0.325195:-8.8125:6.75:-0.25
1562062326989430:29:84:93:7:38:13:1:-22:-0.36377:-0.855469:0.345703:1.625:0.375:2.6875
1562062327041436:18:39:74:7:51:3:6:42:-0.349609:-0.910156:0.339844:0.1875:-0.9375:0.3125
1562062327085440:-18:-64:-7:9:-66:-4:-1:29:-0.36377:-0.894043:0.352051:-5.25:1:-0.25
1562062327133445:19:-65:36:1:16:-12:3:35:-0.364258:-0.87793:0.338379:-1.5625:2:-0.4375
1562062327193451:-35:-77:-105:-40:-52:5:-6:-62:-0.360352:-0.867188:0.337891:-1.4375:0.1875:0.25
1562062327242456:-7:16:18:9:33:-9:-6:6:-0.371094:-0.885254:0.339844:1.4375:-0.1875:1.0625
1562062327290460:34:83:-98:-39:-27:14:2:-48:-0.375:-0.878418:0.336426:0.375:-0.3125:0.125
1562062327335465:-21:82:-3:33:-5:-9:13:14:-0.367676:-0.887695:0.341797:0:-0.0625:0
1562062327396471:-31:-124:-115:2:-2:-7:-14:-10:-0.366699:-0.875:0.340332:1.125:-0.125:-0.75
1562062327445476:-2:-63:-1:24:-4:5:13:21:-0.360352:-0.898926:0.340332:1.3125:-0.6875:-0.9375
1562062327493481:11:18:98:15:13:4:-1:-2:-0.35791:-0.883789:0.333496:4.6875:-2.5625:-1.25
1562062327543486:1:9:-2:17:-26:0:-3:-12:-0.354004:-0.868164:0.338867:11.0625:-3.375:-2.375
1562062327587490:44:-13:1:16:-18:-4:32:18:-0.365723:-0.947266:0.354492:16.3125:-13.125:-5.5
1562062327647496:0:2:-4:20:-3:-1:1:0:-0.357422:-0.860352:0.387207:18.1875:-8.5625:-0.8125
1562062327696501:2:5:3:66:-7:-2:7:-4:-0.335449:-0.852539:0.41748:30.1875:-2.25:0.375
1562062327745506:2:0:1:3:1:1:4:2:-0.362305:-0.840332:0.434082:27.9375:0.1875:-3.875
1562062327800511:-2:1:-1:23:3:0:-2:-15:-0.34082:-0.879883:0.428711:7.9375:-3.4375:-6.25
1562062327853517:0:-2:-2:-6:-3:-4:0:-3:-0.332031:-0.845215:0.441406:3.6875:-8.4375:-1
1562062327893521:0:-24:-5:-4:2:0:4:-2:-0.333496:-0.846191:0.452148:0.9375:-7.8125:-0.3125
1562062327953527:0:9:-2:26:-2:0:-4:-15:-0.32959:-0.835938:0.460449:3.25:-4.375:0.125
1562062327996531:-1:4:-3:-7:-4:1:2:6:-0.315918:-0.835449:0.464355:-3.75:-2.875:-1.75
1562062328045536:-2:-3:-1:3:-2:0:-1:-3:-0.34082:-0.846191:0.441895:-2.5625:-0.625:-1.375
1562062328093541:-1:0:-6:15:0:-4:1:-2:-0.333008:-0.849121:0.444824:-0.6875:-1.0625:-0.5625
1562062328154547:0:0:-3:-10:-8:-1:0:5:-0.319824:-0.842773:0.458008:0.5:-2.3125:0.75
1562062328203552:-1:1:2:8:-1:-1:-1:-1:-0.325684:-0.842773:0.454102:0.8125:-1.125:0.25
1562062328254557:-4:-3:-6:-7:-1:0:-1:-1:-0.326172:-0.849121:0.456055:2.8125:0.4375:-0.1875
1562062328295561:0:1:5:-3:-1:0:0:1:-0.319336:-0.842773:0.460449:1.875:0.75:-0.4375
1562062328357567:-3:-1:-2:-5:-5:-3:-2:-2:-0.326172:-0.846191:0.459961:1.1875:1.0625:-0.375
1562062328406572:-2:0:1:0:-2:1:-4:-13:-0.322266:-0.849121:0.449707:2.5:0.8125:-0.375
1562062328456577:0:0:-4:-2:-1:0:2:3:-0.325684:-0.839844:0.461914:1.75:0.9375:-0.6875
1562062328495581:1:0:2:-3:-1:1:3:3:-0.32373:-0.847656:0.456055:1.9375:0.25:-0.625
1562062328555587:1:-1:2:-1:0:0:1:1:-0.325195:-0.839844:0.459961:2.0625:0.5:0.0625
1562062328607592:0:3:7:2:-1:-1:-1:-1:-0.326172:-0.84668:0.458008:2.1875:-0.1875:0.125
1562062328656597:0:-1:-2:0:-2:-1:0:-1:-0.325195:-0.842285:0.462402:1:-0.3125:0.3125
1562062328705602:-1:-2:-2:-2:-2:-1:-1:-1:-0.330078:-0.841309:0.463867:1.125:-0.0625:0.0625
1562062328756607:1:-1:1:1:1:0:-2:-1:-0.325195:-0.837402:0.466797:0.625:-0.1875:0
1562062328812613:-1:-3:0:0:-1:-1:1:2:-0.32373:-0.840332:0.463867:0.25:-0.0625:-0.125
1562062328858617:-2:-8:-11:-3:-1:-1:-3:-1:-0.32666:-0.835938:0.468262:-0.0625:-0.0625:0.0625
1562062328908622:0:-1:1:0:-1:-2:0:3:-0.325684:-0.835938:0.461426:-0.375:-0.375:-0.125
1562062328955627:-1:-3:-2:-5:1:-1:-1:-1:-0.316895:-0.841309:0.465332:-0.3125:-0.1875:-0.375
1562062329014633:-1:0:2:2:-1:-1:2:-1:-0.318359:-0.837402:0.464844:0.0625:0:-0.0625
1562062329065638:0:-3:-2:-2:-4:-1:2:1:-0.324219:-0.838379:0.463867:-0.5625:-0.125:-0.0625
1562062329111643:-1:1:-3:-2:2:1:-2:-1:-0.324219:-0.836426:0.466797:-0.1875:-0.125:0.0625
1562062329158647:0:-3:-6:-1:0:-2:0:-2:-0.322754:-0.847168:0.467773:-0.1875:-0.0625:0
1562062329218653:-1:-1:-5:-6:-2:0:-4:-1:-0.323242:-0.844238:0.455078:-0.4375:-0.1875:-0.125
1562062329267658:-1:0:2:2:0:1:0:-2:-0.320801:-0.839844:0.466309:0.3125:0:-0.0625
1562062329314663:0:3:12:7:3:1:2:-2:-0.324219:-0.839355:0.463867:-0.375:-0.1875:0.0625
1562062329358667:0:1:2:0:1:0:-1:2:-0.318848:-0.837402:0.46875:0.3125:0.0625:0.0625
1562062329417673:-1:0:-2:-2:-1:-1:-1:-2:-0.32373:-0.838867:0.463379:0.25:0:0.0625
1562062329458677:-2:-3:-2:-2:-5:-3:-1:0:-0.32373:-0.833008:0.464355:0.5:0.125:0.125
1562062329518683:0:-2:0:-2:-1:0:0:-1:-0.323242:-0.837891:0.464355:0:0.125:0.1875
1562062329568688:-2:-2:2:0:-1:-1:-1:0:-0.322266:-0.842285:0.462402:-0.0625:0:-0.0625
1562062329618693:-2:0:-4:-4:1:1:-1:-1:-0.322754:-0.839355:0.468262:0.125:0:-0.0625
1562062329658697:0:0:1:1:1:0:0:0:-0.323242:-0.834961:0.467773:0.4375:0.125:-0.0625
1562062329717703:0:-2:0:-1:-1:-2:-1:0:-0.32666:-0.839355:0.469238:0.125:0:0.0625
1562062329770708:0:-1:-4:0:1:-2:0:0:-0.327148:-0.83252:0.468262:0:-0.0625:0
1562062329818713:-1:-3:-3:1:-1:-2:-4:-3:-0.326172:-0.84082:0.470215:0.5:-0.125:0.0625
1562062329867718:-1:0:1:2:-1:0:-2:0:-0.320312:-0.838379:0.467285:-0.0625:-0.4375:0.0625
1562062329918723:-1:0:-1:-2:1:-1:0:-1:-0.324219:-0.838867:0.47168:0.375:-0.3125:0.25
1562062329973729:-3:-5:-7:-2:-1:-2:-2:-3:-0.329102:-0.836914:0.467773:-0.4375:-0.25:0.1875
1562062330020733:0:-1:-1:-1:-2:-2:-3:-4:-0.318848:-0.834961:0.470215:0:0:0.0625
1562062330070738:-1:1:2:0:0:1:-1:2:-0.323242:-0.833984:0.47168:0.1875:0:-0.125
1562062330118743:0:-1:0:0:1:-1:-1:2:-0.329102:-0.836914:0.466309:-0.25:-0.0625:-0.25
1562062330176749:0:-2:-3:-1:-2:0:0:2:-0.321777:-0.834961:0.468262:0.4375:-0.0625:0
1562062330219753:0:-1:-3:-2:-2:0:-1:-2:-0.327637:-0.833008:0.46875:-0.6875:-0.125:-0.125
1562062330273759:-2:0:1:-1:-2:-2:0:-2:-0.321777:-0.834961:0.467285:0.4375:-0.0625:-0.125
1562062330317763:-2:-1:-5:0:2:-1:-1:0:-0.325684:-0.838867:0.463379:-0.3125:-0.3125:-0.0625
1562062330377769:-1:3:1:0:0:2:1:1:-0.327637:-0.834473:0.476562:0:0.0625:-0.0625
1562062330422774:-1:-2:-4:-1:-2:-3:-1:0:-0.326172:-0.833496:0.472168:-0.375:-0.125:-0.1875
1562062330480779:-1:-1:-1:0:-2:0:0:-2:-0.322266:-0.835449:0.468262:-0.125:0.0625:-0.125
1562062330520783:-1:-2:-4:0:1:-3:-1:0:-0.323242:-0.838379:0.473145:-0.0625:-0.0625:-0.125
1562062330580789:-1:1:-4:-3:0:0:-1:-2:-0.32373:-0.838379:0.476074:-0.125:0.0625:0.0625
1562062330633795:1:10:3:0:1:1:1:0:-0.322754:-0.838379:0.466309:-0.75:0:0.125
1562062330680799:0:5:-1:2:0:-1:-1:0:-0.322266:-0.833984:0.471191:-0.3125:-0.125:0.25
1562062330729804:-5:-3:-8:1:1:-3:-1:-2:-0.32666:-0.834961:0.473145:-0.5625:-0.125:0.125
1562062330781810:-1:-6:-5:-3:-3:-2:-1:0:-0.320801:-0.831543:0.46875:-0.9375:0.0625:1.625
1562062330820813:-2:-9:-2:0:-2:-1:-3:0:-0.321777:-0.84375:0.471191:-0.8125:-0.0625:0.3125
1562062330880819:-1:-2:3:-2:1:1:-2:0:-0.329102:-0.821777:0.469727:-0.75:-0.125:-0.25
1562062330933825:0:-1:-6:0:-1:-1:0:-1:-0.32373:-0.834473:0.467285:1.875:0.1875:-0.75
1562062330981830:-3:-27:-2:1:7:1:0:0:-0.324707:-0.837891:0.472168:-0.9375:-0.25:-0.375
1562062331030834:1:4:4:1:-2:1:0:0:-0.333008:-0.835449:0.474121:1.0625:-0.1875:0.25
1562062331082840:-1:1:-2:-4:-2:-2:-1:-2:-0.319336:-0.839355:0.473145:-0.1875:0:-0.1875
1562062331120843:-3:-3:-3:-1:0:0:-2:-1:-0.331543:-0.831055:0.470703:0.0625:0:-0.1875
1562062331180849:0:0:0:-4:-5:-3:0:1:-0.322754:-0.836914:0.469238:0:0.125:-0.125
1562062331233855:-1:-5:2:2:-2:-1:-1:-2:-0.327637:-0.835938:0.472656:-0.6875:-0.25:-0.0625
1562062331283860:-2:-20:-8:-3:-2:-1:-1:-3:-0.325195:-0.835449:0.470215:0:0.125:-0.125
1562062331338865:-1:2:0:0:-3:0:-2:-1:-0.32373:-0.833008:0.474121:-0.25:-0.125:-0.25
1562062331383870:-1:0:2:3:-1:1:-1:-2:-0.320801:-0.841309:0.470215:-0.1875:-0.0625:0
1562062331436875:0:4:0:-3:-1:1:1:2:-0.32373:-0.835938:0.473633:-0.4375:0:-0.0625
1562062331480879:0:0:3:2:-3:-2:0:-2:-0.325195:-0.836426:0.472168:-0.375:0.0625:-0.125
1562062331540885:0:-2:-1:-3:-12:-3:-1:0:-0.32666:-0.831543:0.470215:-0.25:-0.125:-0.0625
1562062331583890:-2:-2:-2:0:2:1:-4:0:-0.324707:-0.837402:0.472168:-0.375:0:-0.0625
1562062331639895:0:-3:2:0:1:-1:-1:0:-0.324707:-0.831055:0.471191:-0.25:-0.125:-0.125
1562062331682900:1:9:7:1:-4:0:-2:-1:-0.324219:-0.838379:0.472168:-0.25:-0.0625:0.0625
1562062331743906:-3:-31:-3:-2:0:1:2:2:-0.33252:-0.835449:0.463379:-1.1875:0.25:0.875
1562062331783910:1:5:2:4:7:9:0:-2:-0.316895:-0.841309:0.463379:-3.0625:0.375:1.375
1562062331843916:-2:-8:-8:-7:-16:-5:-1:0:-0.330078:-0.816406:0.472168:-26.3125:6.375:6.125
1562062331892921:-31:7:-3:1:-48:-13:-11:-63:-0.339355:-0.888672:0.433594:-27.875:9.875:7.6875
1562062331938925:-12:-12:-1:6:17:-16:-2:-9:-0.359375:-0.837402:0.405762:-43.5:9.25:5.125
1562062331983930:-13:37:-13:12:20:-5:-12:-69:-0.356445:-0.89502:0.387695:-17.9375:11.375:3.6875
1562062332042936:-5:41:-120:-25:-54:-16:-4:-3:-0.373535:-0.893555:0.322754:-12.4375:7.6875:-1.125
1562062332086940:16:101:71:-3:1:-9:-3:4:-0.369141:-0.865234:0.361328:1.25:2.875:0.25
1562062332145946:-12:-2:46:3:81:19:5:-15:-0.362793:-0.864746:0.376953:0.1875:3.4375:0.4375
1562062332185950:28:-18:73:-15:-40:-18:3:117:-0.353516:-0.884766:0.366211:-8.3125:4.25:-1.4375
1562062332245956:-27:-83:4:29:-4:-14:-12:-118:-0.365234:-0.872559:0.330566:-5.5625:1.0625:-1.9375
1562062332297961:2:44:9:1:-19:-4:-5:-19:-0.367188:-0.887695:0.348633:1.9375:1.125:-1.125
1562062332342966:10:31:-4:3:-1:1:20:4:-0.367676:-0.87793:0.349121:4.1875:0.375:-1.0625
1562062332396971:-3:-11:5:-12:-16:-2:-3:8:-0.357422:-0.894531:0.367188:16.1875:-4.375:-3.9375
1562062332446976:4:31:22:3:16:1:2:16:-0.361328:-0.841309:0.407227:7.5:4.4375:1
1562062332485980:-9:-38:-50:4:12:10:11:13:-0.355469:-0.908691:0.350098:-6.0625:-3.25:-1.8125
1562062332545986:-5:-18:-3:-1:1:2:-6:-9:-0.364258:-0.829102:0.358887:6.3125:0.4375:0.5625
1562062332598991:-3:-1:18:74:14:7:10:-15:-0.371094:-0.86377:0.345703:24.25:-11.25:1.9375
1562062332645996:1:-3:-1:-1:3:1:-10:5:-0.373047:-0.85498:0.445312:33.9375:-12.6875:-4
1562062332707002:3:-2:-8:-13:-6:-2:8:4:-0.328613:-0.827637:0.446777:0.125:-7.4375:-3.6875
1562062332748006:-3:-3:-1:5:-2:-2:-8:0:-0.359375:-0.875977:0.437988:1:-6.9375:-4.0625
1562062332801011:-1:-1:1:5:0:-3:-6:-1:-0.343262:-0.822266:0.445312:11.125:-5.3125:-1.0625
1562062332846016:1:11:3:-7:0:2:-1:-2:-0.321777:-0.84668:0.455078:-0.1875:-5.0625:-0.375
1562062332905022:1:22:9:0:-1:-1:0:2:-0.339355:-0.842285:0.452637:3.4375:-1.8125:-1.3125
1562062332946026:0:-1:-2:-2:-2:-2:-7:-15:-0.333008:-0.838379:0.450684:-0.1875:-0.25:-1.25
1562062333004032:-3:-22:-8:-3:0:-1:0:2:-0.33252:-0.855957:0.45459:2.125:0.5625:-1.1875
1562062333055037:1:13:6:0:2:1:4:7:-0.335449:-0.841797:0.457031:2.75:-0.625:0.5
1562062333101041:-1:1:-1:0:-1:-1:-4:-2:-0.334961:-0.839355:0.455078:3.0625:-0.125:0.125
1562062333146046:1:0:2:0:-4:0:-1:-3:-0.335938:-0.844238:0.458496:0.5:-0.4375:-0.1875
1562062333205052:-1:-5:-2:2:-3:-1:0:-1:-0.334473:-0.840332:0.455078:1.0625:-0.75:-0.0625
1562062333250056:-2:1:2:0:-1:0:0:-1:-0.333984:-0.836426:0.458008:0.8125:-0.875:-0.0625
1562062333304062:-1:-1:-3:-1:-3:-1:3:5:-0.331543:-0.84082:0.463379:1:-0.9375:0
1562062333351066:3:1:7:-1:2:1:0:1:-0.325684:-0.834961:0.471191:0.8125:-0.5625:-0.0625
1562062333401071:2:5:5:4:0:0:1:5:-0.333008:-0.840332:0.467773:-0.375:-1:0
1562062333445076:0:-1:-2:0:-2:-1:0:1:-0.33252:-0.835449:0.468262:1:-0.5625:0
1562062333508082:0:0:0:-3:-1:-4:-2:-2:-0.331055:-0.837891:0.465332:-0.4375:-0.6875:0.0625
1562062333558087:0:1:-1:-3:-1:-2:-4:-5:-0.338867:-0.838867:0.463867:0.6875:-0.25:0.0625
1562062333605092:-1:-3:-2:-1:1:0:-2:-6:-0.32666:-0.833984:0.470215:0.5:-0.125:-0.375
1562062333648096:-1:-1:2:-1:-1:-3:-2:-2:-0.336914:-0.833008:0.463379:0.125:-0.5:-0.375
1562062333708102:-2:-3:-3:-1:-1:-2:-1:-3:-0.334473:-0.834961:0.46875:0.875:-0.4375:0.25
1562062333749106:0:-1:4:1:-2:-1:0:-1:-0.32373:-0.834473:0.467773:-0.625:-0.5:-0.125
1562062333808112:2:2:4:-2:0:-1:-1:-3:-0.328613:-0.830078:0.466797:0.0625:-0.25:-0.1875
1562062333851116:-1:-1:-1:-1:-1:0:-1:4:-0.330566:-0.831055:0.468262:0.6875:-0.125:0.3125
1562062333910122:-1:-3:-4:-2:-2:-2:-1:-2:-0.327637:-0.831543:0.46582:-0.4375:-0.1875:-0.0625
1562062333949126:0:-1:-1:-1:2:0:4:-1:-0.328613:-0.836426:0.460938:0.3125:0.1875:-0.125
1562062334008132:-1:-1:2:3:3:1:-2:-3:-0.341309:-0.833984:0.47168:-0.0625:-0.1875:0
1562062334064138:1:0:1:0:0:0:2:2:-0.336914:-0.836914:0.470215:-0.5:0.1875:-0.25
1562062334109142:0:0:-1:-1:-1:1:1:-1:-0.334961:-0.837891:0.470703:-0.8125:0.3125:-0.375
1562062334151146:-1:-1:-3:-1:-2:-1:1:2:-0.333984:-0.830078:0.465332:0.375:-0.0625:-0.25
1562062334210152:-1:-1:-3:-1:-1:0:-3:0:-0.328125:-0.839355:0.464844:-1.125:-0.3125:-0.25
1562062334263158:2:2:1:2:1:-2:-2:0:-0.32373:-0.835449:0.458496:-0.625:0.3125:-0.4375
1562062334308162:-1:0:5:0:-1:-1:-3:2:-0.328125:-0.832031:0.461426:0.5:0.3125:0.125
1562062334368168:2:3:6:2:-1:0:5:8:-0.321777:-0.840332:0.470703:1:0.0625:0
1562062334409172:-2:0:-1:1:-1:-1:-3:-2:-0.338379:-0.82373:0.469238:1.125:-0.0625:0.3125
1562062334466178:-1:-3:0:-1:-1:-1:-4:-15:-0.339844:-0.828613:0.473145:0.875:-0.0625:0.1875
1562062334511182:0:-3:-7:0:0:0:0:1:-0.331055:-0.833984:0.471191:-1:-0.1875:-0.125
1562062334567188:0:-3:-3:-4:-2:-1:1:4:-0.337891:-0.836914:0.459961:-0.3125:0.125:-0.375
1562062334608192:1:4:3:-3:1:0:2:0:-0.321289:-0.838379:0.465332:0.75:0.3125:-0.4375
1562062334668198:0:1:4:5:-1:-1:-1:-4:-0.32373:-0.830566:0.469238:-0.0625:0.0625:-0.3125
1562062334714203:-2:-2:-6:-3:-2:-1:-2:-1:-0.330078:-0.830566:0.469727:-0.3125:0.0625:0
1562062334765208:0:-1:-5:-2:-2:-2:0:3:-0.333008:-0.837402:0.465332:-0.625:-0.3125:0.1875
1562062334811212:0:0:2:1:1:2:-1:0:-0.334473:-0.833984:0.47168:-0.8125:-0.375:-0.0625
1562062334870218:0:0:-3:-3:2:1:0:1:-0.333984:-0.834473:0.469727:-1.25:-0.125:-0.5
1562062334910222:1:1:5:2:2:1:3:0:-0.327148:-0.834473:0.466797:-0.625:0.25:-0.4375
1562062334972229:-1:2:5:3:-2:0:-2:-2:-0.313965:-0.841309:0.467773:0.625:0.5625:-0.5625
1562062335016233:2:-2:0:0:-1:0:-3:-2:-0.340332:-0.830566:0.472656:0.0625:-0.0625:0.1875
1562062335065238:-2:-3:-3:-3:0:-2:-1:-2:-0.344727:-0.83252:0.471191:0.6875:-0.3125:0.4375
1562062335110242:-3:-2:-4:-1:-1:-1:-3:-4:-0.322754:-0.840332:0.468262:0.1875:-0.0625:0
1562062335171248:0:0:2:2:1:0:2:5:-0.345215:-0.82373:0.465332:-0.1875:-0.375:0
1562062335211252:-2:0:-1:-1:-2:0:1:1:-0.328125:-0.84668:0.466797:-0.375:-0.125:-0.1875
1562062335269258:0:-1:4:-3:1:-2:-3:-8:-0.337891:-0.834473:0.466309:-1.125:0.0625:-0.25
1562062335313263:0:-1:-2:-1:-1:-3:-2:-4:-0.326172:-0.831543:0.470703:0.25:0.0625:-0.25
1562062335373269:-1:-1:-8:-1:1:-2:-1:-1:-0.335938:-0.828125:0.469238:-0.6875:-0.125:-0.125
1562062335413273:-1:0:-3:1:-1:1:-2:-6:-0.339844:-0.828125:0.472656:1:0.25:-0.125
1562062335470278:-1:-1:-1:2:-1:1:2:1:-0.331055:-0.834473:0.465332:-2.0625:-0.1875:-0.5
1562062335526284:-2:0:-1:-2:-1:0:-4:1:-0.330078:-0.826172:0.469727:0.625:0.25:-0.0625
1562062335571288:0:-2:-5:-4:-2:-1:-1:-3:-0.32959:-0.838379:0.466797:-0.125:0.1875:-0.3125
1562062335613293:0:-3:0:0:-1:-1:2:3:-0.338867:-0.830078:0.476074:-0.0625:0:-0.1875
1562062335674299:1:0:1:3:1:0:-1:-3:-0.333496:-0.834473:0.474121:-0.75:-0.25:-0.0625
1562062335726304:-1:0:-1:-1:0:1:-1:-1:-0.328125:-0.835938:0.466797:-1.0625:-0.0625:-0.1875
1562062335770308:0:-2:1:-2:-5:-1:-1:-1:-0.333008:-0.843262:0.464355:-0.875:-0.25:-0.125
1562062335816313:-2:0:-2:-1:-1:0:0:0:-0.317383:-0.837402:0.471191:0.1875:0.25:0
1562062335875319:0:0:4:1:-1:-2:1:-2:-0.33252:-0.831055:0.475098:0.625:0.0625:0.0625
1562062335927324:0:-3:-4:-4:-2:-1:-2:2:-0.336426:-0.829102:0.473145:-0.4375:-0.0625:0.0625
1562062335973329:-1:0:0:-1:-2:0:-3:0:-0.333984:-0.83252:0.470215:-0.5:-0.125:-0.0625
1562062336025334:2:1:2:2:1:1:-1:1:-0.329102:-0.835449:0.472656:-0.5:-0.25:-0.125
1562062336073339:-1:0:-1:-4:-2:-1:0:-2:-0.331055:-0.834961:0.462891:-1:-0.1875:-0.1875
1562062336130344:-3:-1:0:0:1:-2:-1:-2:-0.324219:-0.835938:0.466309:0.3125:0.3125:-0.3125
1562062336176349:-1:-3:-1:-2:-4:-1:-2:-3:-0.333008:-0.829102:0.466797:0.0625:0.25:-0.375
1562062336228354:-2:-2:-4:-3:2:0:2:2:-0.330566:-0.833984:0.474609:0.375:-0.125:-0.0625
1562062336272359:1:0:4:4:2:3:5:3:-0.33252:-0.836426:0.469727:-0.9375:-0.25:-0.125
1562062336326364:1:0:-1:-1:-4:-2:-3:-2:-0.328613:-0.835938:0.463867:-0.4375:0.0625:-0.125
1562062336374369:0:4:-1:0:0:0:-2:1:-0.335449:-0.833496:0.466309:-0.125:-0.125:-0.0625
1562062336432375:-1:-3:1:-2:0:-1:-2:-2:-0.328613:-0.833984:0.470215:0.4375:0.125:-0.0625
1562062336475379:-1:-6:-4:-2:-2:-1:1:0:-0.331543:-0.832031:0.469727:-0.25:-0.25:0.0625
1562062336535385:1:-3:4:-2:-1:-2:-1:-2:-0.328613:-0.841309:0.46875:0.125:0:0
1562062336572389:-5:-10:-9:-3:-3:-2:-2:-2:-0.32959:-0.835938:0.46875:-1.5625:-0.1875:0.375
1562062336633395:2:6:8:6:3:1:4:5:-0.335449:-0.833496:0.462891:-0.8125:0.0625:1.5625
1562062336677399:-22:-61:31:5:12:8:4:-10:-0.337402:-0.837891:0.464844:-9.5625:2.125:3.3125
1562062336730404:3:5:-18:-45:1:4:-6:-11:-0.367676:-0.854004:0.389648:-72.125:-2.625:2.875
1562062336776409:21:-7:36:1:-27:-5:15:31:-0.425293:-0.78125:0.256836:-58.1875:25.5:-8.8125
1562062336836415:29:73:29:12:-10:6:1:-20:-0.425293:-0.983398:0.27002:-13.625:8.625:-4.9375
1562062336876419:14:40:-70:6:13:6:-2:33:-0.371582:-0.866211:0.308594:0.875:0.0625:2.75
1562062336936425:29:-76:-50:19:79:16:31:124:-0.346191:-0.891602:0.353516:4.3125:-0.5:0.625
1562062336978429:-45:-95:-17:42:8:5:-31:-54:-0.363281:-0.885254:0.311035:-3.375:1.9375:-0.125
1562062337039435:-12:-6:-64:35:-27:-6:-13:-9:-0.362793:-0.902832:0.322266:3.5625:-0.5625:-0.9375
1562062337079439:4:26:-4:23:-21:-2:5:13:-0.354492:-0.853516:0.300781:13.5625:-8.3125:1.4375
1562062337136445:2:9:-22:-48:-9:-2:-10:1:-0.374512:-0.901367:0.375:36.375:-15.125:-2.625
1562062337188450:-5:-2:-5:15:6:3:5:0:-0.337891:-0.870605:0.381348:29.9375:-8.3125:-3.5
1562062337239455:1:5:0:-15:-9:-2:-8:5:-0.348633:-0.878418:0.397949:32.625:-6.6875:-2.75
1562062337277459:-3:11:-4:-8:-7:-3:-1:-1:-0.339355:-0.867188:0.44043:12.4375:-7.9375:-1.375
1562062337337465:-2:-6:-7:-5:4:2:2:2:-0.343262:-0.839355:0.442383:16.5:-7.9375:-1.375
1562062337375469:2:4:2:-1:-2:1:0:-5:-0.331055:-0.81543:0.490723:8.8125:-1.1875:-4.0625
1562062337435475:1:2:0:-1:2:1:-3:1:-0.328125:-0.83252:0.456055:-6.9375:0.5:-4.375
1562062337488480:-1:6:3:2:-1:1:5:10:-0.330566:-0.842285:0.456543:3.875:0.3125:-1.5
1562062337533485:-3:-11:-7:3:2:-3:-3:2:-0.329102:-0.82959:0.462402:2.25:-0.25:-0.5
1562062337577489:0:-4:-12:-6:-5:-3:-5:-2:-0.332031:-0.843262:0.449707:0:-0.3125:-0.625
1562062337638495:1:5:15:9:0:0:-5:5:-0.330566:-0.837891:0.459473:2.0625:-0.0625:-0.1875
1562062337690500:0:-2:-2:-3:-1:0:2:-1:-0.323242:-0.839844:0.464844:-0.5:0.625:-1
1562062337738505:1:4:-2:-3:-3:-2:1:2:-0.336426:-0.839844:0.464844:1.1875:0.0625:-0.25
1562062337789510:-1:-5:-4:-2:1:-1:-5:-13:-0.330078:-0.837891:0.464844:0.625:-0.375:0.125
1562062337841515:-1:-3:-2:-1:-2:-2:-3:-2:-0.328613:-0.839355:0.462891:0.9375:-0.25:-0.25
1562062337893521:-1:0:-1:-1:-1:1:1:-4:-0.331543:-0.837402:0.465332:0.5625:0.125:-0.3125
1562062337938525:0:-1:4:2:0:-1:-3:-1:-0.32666:-0.839355:0.459961:-0.25:0.1875:-0.375
1562062337990530:0:-1:-1:0:0:-2:-2:-4:-0.330078:-0.833984:0.468262:0.6875:0.0625:-0.125
1562062338038535:0:-3:0:2:0:0:1:3:-0.33252:-0.836914:0.462891:0.1875:0:-0.0625
1562062338096541:-2:0:0:2:0:-1:-1:0:-0.332031:-0.837402:0.466797:0.875:-0.125:-0.125
1562062338141545:0:0:1:1:0:-2:-2:-1:-0.328613:-0.836426:0.46582:0.0625:0:-0.1875
1562062338193551:0:1:3:1:1:2:1:1:-0.331543:-0.837402:0.466309:0.25:-0.125:-0.125
1562062338238555:-2:-13:-5:-2:1:1:1:-1:-0.328125:-0.836914:0.46582:-0.5:-0.25:-0.125
1562062338297561:0:0:-6:-3:0:-2:-2:-3:-0.325684:-0.841309:0.460938:0.9375:0.125:-0.25
1562062338351566:-2:2:1:2:0:-1:0:0:-0.330078:-0.840332:0.467773:-0.125:-0.1875:0
1562062338398571:-2:0:3:-1:-1:1:0:-1:-0.327148:-0.833984:0.464844:0.75:-0.0625:0
1562062338442576:0:3:-1:-3:1:1:2:0:-0.329102:-0.839844:0.472168:-1.3125:-0.25:-0.125
1562062338501581:0:0:-2:-3:0:0:1:-3:-0.336426:-0.838379:0.461914:0.875:0.0625:0
1562062338537585:1:0:1:-1:2:-1:-2:0:-0.323242:-0.838867:0.466309:-0.25:0:-0.125
1562062338598591:1:0:-1:-4:-3:-3:-1:1:-0.33252:-0.830566:0.459473:0.125:0.125:-0.25
1562062338650596:0:0:1:0:0:0:1:0:-0.331055:-0.836426:0.467773:0.4375:-0.125:0.125
1562062338695601:0:0:0:-2:-2:-1:0:-2:-0.324707:-0.836914:0.466309:-0.375:-0.25:-0.0625
1562062338741605:-1:-2:-2:-1:-2:-1:0:1:-0.331543:-0.834961:0.466309:0.125:-0.0625:0.0625
1562062338800611:0:-2:-3:3:-3:-1:-2:-2:-0.330566:-0.838379:0.460449:-0.3125:0:-0.1875
1562062338853617:-1:-1:-1:-3:0:-1:0:2:-0.327637:-0.833496:0.465332:-0.3125:0.125:0.0625
1562062338902622:-1:0:-1:-4:-2:0:2:0:-0.330078:-0.838379:0.464844:-1.0625:-0.0625:0.0625
1562062338943626:-1:1:3:1:1:-1:0:-2:-0.331055:-0.837891:0.466797:0:0:0
1562062339003632:0:-4:-2:-3:-2:-1:1:2:-0.33252:-0.836426:0.464844:0.125:0.125:0.125
1562062339056637:0:0:5:1:-2:1:0:-1:-0.330078:-0.836914:0.467773:0:0:-0.0625
1562062339101641:-1:-1:-5:-2:-2:0:-2:0:-0.327637:-0.838867:0.46582:-0.4375:-0.125:0
1562062339153647:-1:0:1:1:-1:1:1:0:-0.332031:-0.836914:0.46582:0:-0.0625:-0.0625
1562062339200651:0:-3:0:-3:1:-1:2:1:-0.328125:-0.837891:0.462891:-0.3125:-0.0625:-0.0625
1562062339258657:0:2:5:1:-1:1:2:2:-0.335938:-0.834961:0.469238:-0.25:0.0625:-0.125
1562062339304662:0:0:0:-2:-3:-1:1:-1:-0.327637:-0.836426:0.466309:-0.0625:0:-0.0625
1562062339355667:-1:1:0:-6:3:1:2:1:-0.328613:-0.837402:0.469727:-0.8125:-0.125:0.0625
1562062339400671:1:-1:-3:-7:-1:1:-1:-3:-0.325195:-0.836914:0.463867:-2.125:-0.625:-0.0625
1562062339453677:0:2:1:2:2:-3:-2:-3:-0.32373:-0.838379:0.467773:-2.1875:-0.9375:0.1875
1562062339506682:-1:0:-4:-9:-4:-4:-4:-2:-0.32959:-0.837402:0.469727:-15.8125:-2:0.8125
1562062339557687:-1:-1:-2:0:5:0:0:0:-0.319824:-0.856934:0.452148:-14:-0.9375:3.3125
1562062339603692:-2:0:-7:-2:-10:-3:-7:-14:-0.329102:-0.848145:0.427734:-14.375:-2.1875:3.875
1562062339655697:2:2:2:1:-5:0:2:7:-0.336426:-0.864746:0.416504:-14:-3.375:6.5
1562062339703702:0:-2:-7:-4:15:3:5:-1:-0.341309:-0.854004:0.424316:-1.3125:-3.6875:8.375
1562062339760707:-1:0:-2:-2:3:-4:1:-1:-0.340332:-0.838379:0.437012:-2.9375:-3.125:7.9375
1562062339806712:-1:-2:0:-3:-13:-1:0:-1:-0.349609:-0.859375:0.432129:-1.875:-0.125:6.8125
1562062339858717:-1:-1:0:-2:-17:-3:-3:-3:-0.364746:-0.840332:0.400391:-9.4375:-0.125:6.8125
1562062339903722:0:3:13:6:0:-1:-1:0:-0.365234:-0.856934:0.42627:0.1875:-3.625:10.125
1562062339955727:-1:-1:-2:-1:-1:-1:-2:0:-0.373535:-0.838867:0.411133:-1:-4.8125:9.9375
1562062340009732:0:0:-4:-4:1:-1:-1:0:-0.37793:-0.842285:0.42041:1.5:-6.5625:7.125
1562062340064738:1:0:3:-2:12:2:1:-1:-0.372559:-0.831543:0.429199:1.4375:-6.6875:4.3125
1562062340106742:0:2:5:0:-1:0:0:2:-0.370605:-0.837891:0.428223:-0.1875:-7.3125:2.25
1562062340158747:-1:-2:3:2:-1:-1:-1:4:-0.370117:-0.84375:0.427246:1.5:-6.6875:1.4375
1562062340203752:-1:-3:-5:-5:-7:-3:-1:1:-0.368652:-0.834473:0.437012:0.9375:-6.875:1.375
1562062340263758:1:7:2:0:-13:-2:-1:-2:-0.368164:-0.839355:0.445801:-0.4375:-6.125:0.5625
1562062340315763:-1:-12:1:-1:-6:-3:-2:1:-0.364258:-0.836426:0.449219:-0.625:-5.1875:0.5625
1562062340363768:0:1:2:1:2:0:2:1:-0.364746:-0.834473:0.446777:-0.1875:-3.4375:0.25
1562062340409772:0:-4:-4:-5:0:-1:1:3:-0.356445:-0.839844:0.445801:-0.3125:-1.5625:0.375
1562062340466778:-1:-1:-3:-2:0:-2:1:-1:-0.365234:-0.833496:0.442383:-0.875:-0.3125:0.5625
1562062340518783:-1:-2:-2:-3:-11:-3:-3:-1:-0.359375:-0.836914:0.44043:0.5:-0.375:0.4375
1562062340569788:0:0:3:2:6:0:0:-1:-0.360352:-0.838379:0.442383:0.6875:-0.875:-0.3125
1562062340611792:-2:-1:-2:-1:-1:0:1:1:-0.367188:-0.838867:0.437012:0.125:-1.4375:-0.0625
1562062340660797:0:0:5:4:-1:-2:-3:-6:-0.358887:-0.833496:0.446777:0.5625:-1.625:0.8125
1562062340721803:0:3:3:4:-2:-1:3:4:-0.36377:-0.835449:0.446777:0.3125:-1.5625:0.9375
1562062340769808:-1:-1:-4:-2:5:1:-2:4:-0.361816:-0.831543:0.447266:1:-0.8125:0.75
1562062340818813:-2:-2:-3:0:-14:-4:-1:-1:-0.361328:-0.833984:0.444824:-0.1875:-0.6875:0.5
1562062340869818:-1:-3:-4:-7:-7:-1:-3:-1:-0.360352:-0.83252:0.447754:0.4375:-0.75:0.3125
1562062340911822:0:-1:5:3:1:1:-1:-4:-0.364258:-0.825684:0.449219:0.25:-0.5625:0
1562062340970828:0:-1:-1:-7:2:-1:-2:-3:-0.363281:-0.834961:0.447266:0.5625:-0.9375:0.3125
1562062341021833:-1:1:1:-1:-1:-1:1:0:-0.358398:-0.835938:0.45166:0.25:-1:0.4375
1562062341068838:0:4:2:-3:-9:0:4:5:-0.362305:-0.835449:0.45166:-0.75:-0.5625:0.5625
1562062341118843:-3:-22:-5:-1:-11:1:0:-5:-0.360352:-0.827148:0.452148:-0.125:0.0625:0.8125
1562062341173849:0:4:1:-1:4:3:2:1:-0.345703:-0.827637:0.449707:-3.5:-0.0625:2.3125
1562062341222854:2:4:0:3:5:1:0:0:-0.363281:-0.851074:0.452148:0.25:0.3125:0.8125
1562062341271858:-3:-11:0:-1:5:-2:-4:-9:-0.363281:-0.838867:0.445801:-1.8125:-0.6875:0
1562062341320863:0:-18:-3:-6:-17:3:3:-4:-0.367676:-0.827637:0.438965:-0.4375:-0.25:0.25
1562062341367868:16:-8:-28:9:36:-2:4:33:-0.373047:-0.827637:0.433105:-19.875:1.1875:4.4375
1562062341418873:-15:37:-27:-46:-32:-17:-17:-28:-0.395996:-0.893066:0.416504:-47.25:-1.875:1.5
1562062341474879:24:-69:123:38:-69:-9:12:9:-0.446289:-0.874023:0.274902:-59.4375:9.375:1.625
1562062341523884:-4:-19:-114:26:4:8:16:35:-0.401855:-0.844238:0.405273:10:8.5:7.9375
1562062341571888:27:-13:-111:-50:-42:-9:-6:-31:-0.371094:-0.849609:0.364746:-8.625:1.3125:-2.0625
1562062341620893:-4:-28:76:27:-60:-19:6:13:-0.399902:-0.850586:0.32666:1.3125:-0.5625:-3.6875
1562062341678899:1:-46:-39:20:65:1:-9:-44:-0.376465:-0.866699:0.358887:3.5:0.4375:-3
1562062341726904:-1:35:-30:-5:-33:-6:9:-10:-0.391602:-0.864746:0.347168:2.5625:-0.8125:-3.625
1562062341774909:10:24:6:-15:9:6:4:1:-0.384766:-0.84668:0.361328:4.875:0.75:-1.9375
1562062341822914:-10:-21:-27:25:11:-5:-10:-16:-0.39502:-0.868164:0.337891:11.875:-1.375:-1.6875
1562062341870918:-5:-2:-12:15:9:2:-4:-2:-0.369141:-0.867676:0.431641:35.25:-3.0625:-6.4375
1562062341919923:-3:-4:-4:-18:15:1:-7:-4:-0.351562:-0.83252:0.425293:23.3125:-6.5:-8.8125
1562062341971928:-3:-3:-7:8:-2:0:-3:-1:-0.36084:-0.870117:0.432129:22.25:1.3125:-9.4375
1562062342032935:-1:13:-1:2:5:1:-3:-1:-0.37207:-0.824707:0.408203:-11.5625:-2.5:-9.1875
1562062342074939:-3:6:-1:8:-4:0:-4:2:-0.348633:-0.883301:0.425293:0.25:-6.4375:-5.125
1562062342123944:3:13:-1:10:5:-5:1:3:-0.326172:-0.834473:0.45752:5.4375:-3.625:-1.1875
1562062342171948:-3:-31:4:0:1:0:0:6:-0.333496:-0.833984:0.451172:-5.8125:-0.625:0.375
1562062342231954:1:1:0:-1:-3:-2:0:2:-0.34668:-0.810059:0.448242:7.5625:1.8125:-1.25
1562062342280959:0:7:3:-2:5:3:1:3:-0.348633:-0.82959:0.447266:-5.5625:2.125:-4.4375
1562062342333965:-2:1:-1:-1:5:0:4:3:-0.334473:-0.851562:0.437012:3.875:0.5:-2.375
1562062342373969:-1:-7:0:0:-1:2:1:2:-0.345215:-0.844238:0.443359:1.75:-0.5625:-1.375
1562062342434975:0:2:-1:-1:2:0:-2:-2:-0.331055:-0.837891:0.447266:3.6875:-0.1875:-1.6875
1562062342483980:2:2:3:4:2:0:0:3:-0.334473:-0.845703:0.452637:3.8125:-0.3125:-2.1875
1562062342533985:0:1:4:-2:0:-1:-2:-1:-0.337891:-0.84668:0.453613:5.3125:-0.4375:-1.625
1562062342573989:-1:-6:1:2:-1:-2:-4:0:-0.32959:-0.831543:0.460449:6:-0.1875:-2.0625
1562062342632995:-3:-1:-6:1:-4:0:1:2:-0.33252:-0.83252:0.465332:7.4375:0.75:-2.5625
1562062342687000:1:5:-1:-3:-2:-2:-2:-3:-0.335938:-0.832031:0.478027:7.9375:1.9375:-2.0625
1562062342735005:0:5:4:3:0:0:3:5:-0.331055:-0.830078:0.480469:7.4375:2.3125:-1.8125
1562062342784010:0:4:-1:3:1:0:-1:4:-0.327148:-0.833496:0.48291:6.125:2.25:-0.9375
1562062342834015:1:1:2:1:0:1:-1:-1:-0.329102:-0.824219:0.474609:3.5:1.1875:-0.3125
1562062342889020:-3:-12:-11:-8:-8:2:2:-4:-0.33252:-0.828125:0.48291:0.875:0.5625:1
1562062342934025:1:-6:2:5:2:1:2:3:-0.336426:-0.816895:0.483398:-8.1875:0.1875:2.3125
1562062342987030:3:11:4:-2:-2:-2:0:1:-0.325195:-0.836914:0.479004:-0.6875:0.4375:0.5625
1562062343034035:1:5:0:-1:-13:-3:1:0:-0.335449:-0.823242:0.48291:1.9375:0.6875:0.375
1562062343083040:-2:-1:-3:-1:3:-3:-4:-2:-0.338379:-0.833008:0.48291:0.0625:0.125:0.25
1562062343134045:-2:-2:1:4:4:3:-1:1:-0.329102:-0.82666:0.482422:3.0625:0.0625:0.0625
1562062343190050:1:-1:3:0:2:-1:-1:0:-0.331543:-0.825684:0.487305:1.375:-0.0625:-0.0625
1562062343233055:1:-2:1:-1:8:1:-1:-2:-0.339844:-0.82373:0.484863:1.0625:-0.0625:-0.3125
1562062343287060:-1:-2:-8:-3:4:-1:0:-1:-0.338379:-0.822754:0.490234:1.9375:-0.0625:0.1875
1562062343338065:0:1:3:5:-2:-4:-1:0:-0.336914:-0.82373:0.48291:-0.3125:-0.4375:-0.0625
1562062343393071:1:2:2:-2:0:1:0:6:-0.33252:-0.823242:0.483887:1:0.0625:0.1875
1562062343437075:-2:1:0:1:0:1:-3:-2:-0.333984:-0.82373:0.48291:-1.25:-0.125:-0.0625
1562062343490080:-2:-1:-2:-1:2:2:-2:-1:-0.336426:-0.822754:0.487305:-0.1875:0.1875:-0.125
1562062343534085:0:2:1:0:-8:-2:-2:-3:-0.337402:-0.82666:0.485352:-1.6875:-0.3125:0.0625
1562062343586090:-1:0:0:-5:-20:-2:-1:-2:-0.33252:-0.816895:0.486816:0.25:-0.3125:0.0625
1562062343646096:-3:-4:-1:1:5:-1:-1:0:-0.338379:-0.822754:0.485352:-1.25:-0.5625:-0.0625
1562062343692100:0:-1:0:-4:0:1:1:0:-0.336914:-0.830078:0.479492:-0.4375:-0.375:-0.125
1562062343736105:0:1:-1:1:1:0:1:4:-0.330078:-0.821777:0.486328:-0.25:0.125:-0.1875
1562062343796111:0:-1:0:-1:-3:0:2:0:-0.340332:-0.824219:0.48584:-0.125:-0.0625:-0.125
1562062343837115:-1:0:4:5:6:2:0:-4:-0.333008:-0.82373:0.481445:-0.4375:0.0625:-0.3125
1562062343896121:0:0:-3:2:9:0:-1:0:-0.339355:-0.825195:0.485352:0.625:0.0625:-0.0625
1562062343946126:-2:-3:-7:-2:5:2:-1:-1:-0.339844:-0.825195:0.489258:-1.1875:-0.125:-0.1875
1562062343997131:-1:5:1:-3:-14:-3:-2:2:-0.331055:-0.825684:0.481934:0.3125:0.125:-0.0625
1562062344036135:-1:-2:0:-2:0:1:0:4:-0.331543:-0.827637:0.484863:-0.875:-0.125:-0.125
1562062344096141:0:-1:0:1:4:1:0:0:-0.336914:-0.816895:0.484863:-0.8125:0.1875:-0.25
1562062344149146:1:0:0:-3:-4:0:0:0:-0.331543:-0.82959:0.482422:-0.4375:0:-0.3125
1562062344197151:-2:-1:-2:1:-7:0:-1:0:-0.340332:-0.821289:0.486816:-0.875:-0.0625:0
1562062344245156:-1:-1:-4:-4:2:-2:1:-1:-0.336426:-0.825195:0.483887:0.1875:0.1875:0
1562062344298161:0:-1:2:0:1:-2:0:-1:-0.334961:-0.821777:0.487305:-0.8125:-0.5:0
1562062344335165:1:1:3:1:2:1:-1:1:-0.331543:-0.822266:0.47998:0.3125:0:-0.25
1562062344396171:0:0:4:3:-1:2:1:0:-0.334961:-0.825684:0.484863:0.125:-0.1875:0.0625
1562062344448176:0:-2:1:-1:2:-1:-1:-3:-0.33252:-0.821777:0.479004:0.375:-0.0625:0
1562062344499181:-1:1:0:-1:0:0:0:0:-0.334961:-0.820312:0.484375:-0.125:0.125:0
1562062344538185:-2:-1:-7:-5:-1:0:-1:-2:-0.338867:-0.822266:0.486328:-0.3125:-0.0625:-0.25
1562062344599191:-2:-1:2:-1:-1:-1:0:-1:-0.337402:-0.820312:0.490234:0.5:0:0.0625
1562062344651196:0:-2:-1:-2:0:-1:0:1:-0.332031:-0.825195:0.486816:-1:0.0625:-0.125
1562062344695201:0:-1:1:1:-2:0:1:-1:-0.333496:-0.818359:0.486328:-0.25:0.0625:-0.0625
1562062344749206:1:0:-3:-2:3:-2:-2:1:-0.334961:-0.829102:0.480957:-0.875:-0.1875:0
1562062344800211:0:0:-3:-1:-5:0:-1:-1:-0.331055:-0.818359:0.481445:0.8125:0.125:0.1875
1562062344854217:-2:-1:1:1:-3:-2:-1:-1:-0.32959:-0.825684:0.47998:-0.75:-0.125:0
1562062344898221:-2:2:1:0:-1:-1:1:-2:-0.335938:-0.822754:0.491211:-0.125:0.25:-0.125
1562062344952226:-2:0:-5:-1:1:1:-2:0:-0.33252:-0.828125:0.487793:-0.125:-0.1875:0
1562062344999231:-2:-2:1:1:3:0:2:-1:-0.333984:-0.822754:0.488281:-0.875:-0.25:-0.125
1562062345048236:0:-1:2:0:2:1:1:-1:-0.333008:-0.821777:0.491211:-0.125:0.0625:-0.0625
1562062345100241:-1:0:0:2:-1:1:-1:-1:-0.333008:-0.828125:0.485352:0:0.3125:-0.0625
1562062345154247:1:2:2:1:4:0:-1:-1:-0.331543:-0.821289:0.489746:0.1875:0.0625:0.125
1562062345199251:-2:0:-1:2:-2:-2:-2:-1:-0.333008:-0.822754:0.485352:-0.125:0.125:0.0625
1562062345251256:-1:-3:-1:-1:-1:0:1:-1:-0.331055:-0.825684:0.481445:0.4375:0:0.125
1562062345302261:-1:1:-6:0:-2:-2:-1:-1:-0.337402:-0.825195:0.480469:0.25:-0.125:0
1562062345340265:-1:-1:-6:1:1:0:2:-1:-0.333984:-0.824707:0.488281:-0.1875:0:-0.0625
1562062345401271:1:-1:2:0:1:-1:0:0:-0.334961:-0.822266:0.483887:-0.625:0.125:-0.1875
1562062345454277:-1:0:3:-1:0:-1:-1:0:-0.336914:-0.822266:0.483398:0.125:-0.0625:-0.0625
1562062345498281:0:1:-1:-2:3:3:0:0:-0.339844:-0.819336:0.483398:-0.75:-0.0625:0.125
1562062345558287:0:-2:-2:-2:12:-3:-1:-1:-0.335938:-0.817871:0.48877:0.3125:0.0625:0
1562062345602291:-1:-1:-2:0:-1:-1:-1:0:-0.331055:-0.824707:0.482422:-0.5625:-0.0625:0
1562062345662297:-1:-1:0:-2:-1:-2:-3:-1:-0.339844:-0.824219:0.491211:-0.5625:0:-0.0625
1562062345700301:-2:0:-7:-1:-6:-3:-2:-1:-0.330078:-0.821777:0.489746:0.25:0.125:-0.125
1562062345761307:1:2:4:2:1:1:0:-1:-0.337891:-0.821289:0.486816:-0.8125:0.1875:-0.0625
1562062345802311:0:-2:-3:-2:1:-1:0:-1:-0.333496:-0.82666:0.486816:0.25:0.125:-0.0625
1562062345861317:-3:-1:1:-1:0:-1:-1:0:-0.334961:-0.821777:0.487305:-0.4375:0.125:0.0625
1562062345910322:0:-6:-4:2:0:-1:-1:0:-0.333496:-0.822266:0.478027:0.25:0:0
1562062345961327:-1:1:-3:2:7:1:0:1:-0.334473:-0.826172:0.48291:-0.3125:-0.0625:0
1562062346001331:-1:0:-1:-2:-3:-1:-3:0:-0.336426:-0.820312:0.489258:0:-0.0625:0.1875
1562062346060337:2:-1:0:-1:-4:-1:0:-1:-0.337891:-0.818848:0.481934:-0.1875:0.0625:-0.0625
1562062346114343:-1:-1:0:3:9:2:1:0:-0.338379:-0.818359:0.490234:0.0625:0.0625:-0.125
1562062346162347:0:-2:3:1:2:0:-2:-1:-0.336914:-0.815918:0.487305:0.0625:-0.1875:0
1562062346210352:2:3:2:-3:-2:0:-3:1:-0.336914:-0.822754:0.48584:0:-0.125:0.125
1562062346263358:-2:-1:-1:2:2:-1:-1:-1:-0.327148:-0.821777:0.482422:0.1875:0.0625:-0.375
1562062346316363:-2:-3:-6:-3:-9:-1:-1:0:-0.341309:-0.814941:0.481934:-0.375:-0.25:0.125
1562062346361367:0:0:0:0:-2:0:-2:-2:-0.333008:-0.828613:0.487305:-0.0625:-0.125:-0.0625
1562062346420373:0:2:3:3:3:1:0:-1:-0.333008:-0.823242:0.483398:-0.6875:-0.125:-0.0625
1562062346464378:-3:-20:0:-1:1:1:0:1:-0.337402:-0.825684:0.486328:0.6875:-0.125:0.125
1562062346525384:-7:18:8:13:75:20:4:-22:-0.353027:-0.859375:0.494141:-23.625:2.6875:8.9375
1562062346563388:15:-6:23:3:-9:5:14:90:-0.400391:-0.754395:0.285645:-86.1875:-5.125:4.25
1562062346623394:33:63:-18:-9:-27:26:4:14:-0.348145:-0.72998:0.469727:-32.6875:33.125:-3.625
1562062346664398:56:80:-5:16:38:12:12:15:-0.356934:-0.884277:0.306641:-70.5625:13.4375:-1.625
1562062346713403:49:-18:19:55:121:34:16:79:-0.438477:-0.773926:0.28125:35.375:6.9375:1.3125
1562062346765408:-38:-115:-88:-36:-31:-7:-20:-55:-0.335938:-0.964355:0.376465:-12.1875:-0.5625:-2.125
1562062346820413:10:46:53:33:-16:-6:-6:-25:-0.369629:-0.811035:0.350586:-1.875:-3.1875:-0.5625
1562062346863418:15:-10:-24:4:-14:-3:-5:7:-0.353027:-0.874512:0.355469:6.6875:-0.1875:-1.3125
1562062346923424:18:22:-12:59:11:1:10:12:-0.378906:-0.859375:0.342285:22.5625:-12.5:-3.0625
1562062346963428:-3:1:-1:47:1:-3:-2:-7:-0.339355:-0.874023:0.408203:20.625:-13.0625:-0.875
1562062347025434:-13:-5:-10:2:-1:2:-3:-3:-0.349121:-0.86084:0.427246:34.1875:-7.375:2.1875
1562062347073439:-3:0:6:-7:3:0:-4:2:-0.349609:-0.820312:0.456055:28.0625:-5.8125:-2.75
1562062347126444:-4:-1:0:-1:-1:-1:-3:1:-0.337402:-0.84375:0.460938:6.625:-4.1875:-2.625
1562062347163448:0:1:1:-2:-3:1:2:6:-0.34375:-0.836426:0.45459:3.5625:-2.9375:-5.375
1562062347226454:-2:1:2:1:0:-1:-2:-4:-0.330566:-0.815918:0.482422:7:-0.625:-3.8125
1562062347283460:0:-2:-4:1:0:-2:0:-5:-0.224609:-0.841309:0.533691:-0.875:2.6875:-2.375
1562062347323464:0:2:-1:1:0:1:-1:-1:-0.873535:-0.873535:-0.090332:5.375:0.5:-1.75
1562062347382469:1:1:1:1:-1:0:4:5:-0.282227:-0.907227:0.854004:5.5625:1.1875:-0.4375
1562062347426474:-2:-2:-3:-1:-1:-1:-3:0:-0.586426:-0.901367:0.694336:-0.875:4.1875:0.9375
1562062347478479:-3:-3:-7:-3:0:-1:-3:-3:-0.323242:-0.82373:0.487793:2.6875:0.5625:-0.5625
1562062347523484:-1:0:0:0:0:-2:0:0:-0.33252:-0.833008:0.482422:1.75:0.4375:-0.0625
1562062347583490:-1:-2:-5:-1:-4:-1:-1:3:-1.06055:-0.929199:0.395508:-0.75:1.1875:1.6875
1562062347624494:0:2:5:-1:2:-1:1:1:-0.601074:-0.864258:0.517578:0.5625:7.375:-3.25
1562062347684500:-1:0:0:0:0:-2:0:4:-0.33252:-0.815918:0.485352:0.75:0.0625:-0.125
1562062347725504:-1:-2:-4:-5:-3:-1:-3:-1:-0.328613:-0.831055:0.486328:0.375:0.3125:-0.0625
1562062347778509:0:1:2:-1:-2:-1:-1:2:-0.334473:-0.825684:0.486328:0.75:0.0625:0.0625
1562062347823514:-1:-3:-3:-1:-3:-3:-1:-1:-0.330566:-0.822754:0.489746:0.5625:0.25:0.0625
1562062347883520:0:-1:0:-1:0:1:-2:0:-0.328613:-0.828613:0.485352:0.125:0.25:0
1562062347939525:0:1:0:-2:1:0:0:0:-0.329102:-0.826172:0.484375:0.375:0.125:0.0625
1562062347989530:-1:-2:-1:0:-1:0:-1:0:-0.334473:-0.824219:0.486328:0.25:0.125:0.125
1562062348026534:-1:0:-3:-4:0:0:0:-2:-0.324707:-0.822266:0.492188:1.5625:0.3125:0
1562062348086540:-1:-1:-3:-3:-1:0:-2:-1:-0.341309:-0.820801:0.489746:-0.125:-0.0625:0.125
1562062348125544:-1:-1:-2:1:3:-2:-1:0:-0.328613:-0.825195:0.486328:1.3125:0.0625:0.125
1562062348186550:0:-1:-1:-3:-1:-4:-2:-1:-0.328125:-0.819336:0.490723:-0.0625:-0.3125:0
1562062348228554:0:-2:-2:1:0:0:-2:1:-0.333984:-0.821289:0.489258:0.375:0.1875:-0.125
1562062348288560:0:-1:0:-2:-3:-3:-2:1:-0.330566:-0.820312:0.487793:0.25:-0.1875:-0.1875
1562062348334565:-2:-3:1:-1:-1:-1:1:0:-0.330078:-0.819336:0.488281:-0.4375:-0.3125:0.0625
1562062348385570:-3:-2:-3:-2:-1:-2:0:-1:-0.330078:-0.821777:0.492188:0.6875:0.0625:0
1562062348441575:-1:0:1:1:2:1:1:0:-0.328125:-0.822754:0.48877:-0.4375:-0.375:0
1562062348486580:0:0:-1:0:1:-2:-1:-1:-0.33252:-0.825195:0.488281:1.25:-0.125:0.0625
1562062348544586:-1:0:0:-2:1:-1:1:1:-0.332031:-0.819336:0.493164:-0.0625:-0.125:0.125
1562062348588590:0:-1:-1:-1:-2:0:-1:0:-0.333496:-0.82373:0.494141:-0.375:-0.125:-0.1875
1562062348640595:0:1:-1:-1:1:-1:0:-1:-0.331055:-0.821289:0.490723:-0.0625:-0.1875:0
1562062348685600:0:0:-3:-1:-1:-1:-1:-1:-0.333496:-0.825195:0.490234:0.4375:-0.125:0.0625
1562062348746606:-1:0:4:1:1:0:-1:0:-0.331055:-0.818359:0.493164:-0.0625:0.0625:0.0625
1562062348785610:1:-1:1:-1:2:0:0:-1:-0.326172:-0.820801:0.495605:-0.4375:-0.1875:-0.1875
1562062348843616:0:-1:2:2:-1:1:1:-2:-0.330566:-0.819824:0.489746:-0.3125:-0.1875:0
1562062348887620:-1:-1:-2:0:-2:1:0:-1:-0.324707:-0.820801:0.493164:0.8125:-0.1875:-0.125
1562062348940625:0:-1:0:-5:-2:0:0:0:-0.338379:-0.818848:0.490723:-0.875:-0.1875:-0.0625
1562062348985630:-1:-2:-2:-1:-3:0:-1:0:-0.330078:-0.815918:0.487793:0.1875:-0.125:0.0625
1562062349045636:-1:-1:-3:-1:0:0:0:1:-0.330078:-0.823242:0.496094:-0.1875:-0.25:0
1562062349091640:-2:-2:3:1:-1:-1:-1:0:-0.33252:-0.817383:0.490723:-0.625:0:-0.25
1562062349143646:0:0:2:3:-1:-1:-3:0:-0.329102:-0.825195:0.491699:0.375:0.25:-0.1875
1562062349188650:0:-1:-1:-2:-2:0:-1:0:-0.336426:-0.816406:0.493164:-0.625:-0.375:0.0625
1562062349240655:0:1:3:1:1:-1:-1:1:-0.32666:-0.819824:0.496582:0.5:-0.0625:0.0625
1562062349288660:1:-1:-2:0:-2:-1:0:-1:-0.330078:-0.821289:0.490723:-0.375:0:0
1562062349346666:0:2:0:1:-4:-2:-1:-3:-0.426758:-0.818359:0.438477:2.3125:-2.625:0.25
1562062349390670:0:0:4:0:1:-1:-3:0:-0.0151367:-0.827637:0.83252:-5.875:-3.5:4.875
1562062349443676:-2:-3:-5:0:-1:-3:-2:-2:-0.398926:-0.760254:0.0756836:5.5625:-0.375:-5.6875
1562062349488680:-1:0:-1:0:0:-1:0:-2:0.327148:-0.737305:0.524414:1.5625:-3.75:-1.375
1562062349540685:0:1:1:-2:0:3:3:-1:0.340332:-0.812012:0.901367:-3.375:-3.1875:2.625
1562062349589690:0:1:0:-2:0:1:2:2:-0.511719:-0.900879:0.804688:-4.8125:1.6875:3.75
1562062349646696:0:-1:1:-1:-1:-1:0:1:-0.186523:-0.834473:0.663086:-5:-2.25:6.0625
1562062349690700:0:-1:-5:-1:0:-1:-3:-2:-0.335449:-0.824707:0.496582:0.0625:0.25:-0.3125
1562062349743706:-2:-1:1:2:-2:-1:-1:-1:-0.335938:-0.815918:0.496094:0.0625:0.1875:0.0625
1562062349788710:0:1:2:-2:-1:1:-1:1:-0.32959:-0.820801:0.490723:0.4375:0.125:-0.3125
1562062349846716:0:0:1:0:0:-3:0:-1:-0.337891:-0.813965:0.493652:-0.0625:0:0.125
1562062349893721:-1:-1:-1:-1:-1:1:0:1:-0.32959:-0.823242:0.498047:0.6875:0.0625:-0.25
1562062349946726:2:0:-3:0:-1:1:-1:0:-0.331543:-0.8125:0.491211:-0.5:-0.125:0.0625
1562062349990730:-1:0:1:1:-1:-1:0:0:-0.329102:-0.822266:0.495117:0.125:0.0625:0
1562062350043736:-1:-3:-5:2:-2:-2:-3:-1:-0.337891:-0.820801:0.489746:-1:0.0625:-0.0625
1562062350103742:-1:0:-1:0:-1:0:0:-1:-0.331543:-0.813477:0.495117:0.5625:0.0625:0
1562062350148746:-2:-1:-7:-2:-1:-2:-1:-1:-0.33252:-0.822266:0.491211:-0.9375:0:0.0625
1562062350192750:0:1:2:-1:0:-1:-1:0:-0.330078:-0.816895:0.491211:0.4375:0:-0.0625
1562062350246756:-2:-1:-1:0:-3:1:0:-1:-0.329102:-0.818359:0.493652:-0.5625:-0.125:-0.0625
1562062350290760:-2:-3:-8:-5:-2:-2:-1:-1:-0.331055:-0.822754:0.498535:-0.25:-0.125:-0.0625
1562062350350766:-2:-2:-1:1:1:0:-2:-1:-0.333984:-0.819336:0.495117:-0.8125:-0.0625:-0.0625
1562062350391770:0:-2:-5:5:-3:1:0:2:-0.33252:-0.825684:0.495605:-0.25:0.125:0
1562062350449776:-1:0:1:0:0:0:2:2:-0.328125:-0.819336:0.493164:-1.25:-0.4375:-0.25
1562062350493781:1:1:1:0:-2:-1:-3:-2:-0.332031:-0.817871:0.491211:-1:-0.1875:-0.25
1562062350545786:0:-1:-7:1:-2:-2:-1:-1:-0.328125:-0.822754:0.492188:-1.5:-0.75:0.0625
1562062350591790:-1:2:7:5:0:-1:-1:0:-0.333984:-0.822266:0.486816:-1.625:-0.5625:0.1875
1562062350650796:-1:-2:-1:-6:1:0:0:-1:-0.331055:-0.822266:0.48584:-0.9375:-0.125:0
1562062350691800:-2:-4:-3:7:-2:-2:-1:0:-0.330566:-0.820312:0.486816:-1.4375:0.0625:-0.125
1562062350751806:1:0:-2:0:-1:-1:-1:-3:-0.333496:-0.821289:0.492676:-1.8125:-0.125:-0.125
1562062350792810:1:0:-2:-3:0:0:-2:1:-0.324707:-0.82373:0.488281:-0.8125:0.125:-0.375
1562062350852816:0:0:1:0:-4:-3:1:0:-0.334473:-0.819824:0.490234:-0.3125:0:-0.1875
1562062350890820:-1:-2:-1:1:-2:-1:-2:-2:-0.32666:-0.828613:0.488281:0.1875:0.125:-0.25
1562062350950826:-1:1:-5:-5:0:0:0:-1:-0.326172:-0.821289:0.484375:-0.0625:0.125:-0.0625
1562062350995831:0:0:-1:0:-1:1:-2:-1:-0.33252:-0.82373:0.497559:0.5625:0.3125:-0.0625
1562062351055837:0:-2:-2:-3:-1:-2:-1:-1:-0.334473:-0.823242:0.486816:-0.5:0.4375:-0.1875
1562062351092840:-1:-2:-3:1:-1:-1:-3:0:-0.32373:-0.826172:0.487305:0.375:0.25:-0.0625
1562062351152846:-1:2:3:-4:3:2:-1:2:-0.333008:-0.823242:0.493164:-0.1875:0.4375:-0.0625
1562062351193851:-1:-3:-4:7:-1:1:-3:-1:-0.328613:-0.818359:0.484375:-0.25:0.3125:-0.1875
1562062351254857:-1:-1:0:-2:0:0:0:-1:-0.331055:-0.82373:0.491211:-0.5:0:-0.125
1562062351296861:-1:-3:-4:-7:-1:-1:-2:-2:-0.331543:-0.822754:0.485352:-0.5625:-0.125:0
1562062351347866:-2:-1:3:3:-1:0:-1:1:-0.330566:-0.821289:0.48877:0.125:-0.125:0
1562062351392870:-2:-6:0:2:-3:-3:1:0:-0.329102:-0.82959:0.488281:-0.4375:-0.125:0
1562062351453877:-1:-3:0:-3:1:-1:-1:0:-0.330078:-0.821289:0.490234:-0.25:0.25:0.0625
1562062351506882:1:1:2:0:0:0:-2:0:-0.32959:-0.825195:0.491699:-0.5:-0.125:0
1562062351553887:-4:-4:-5:-1:-4:-4:-3:-1:-0.32959:-0.821777:0.491211:0.125:0.125:-0.125
1562062351595891:0:1:0:1:-1:0:-1:-1:-0.32959:-0.820312:0.487793:-0.1875:-0.125:0
1562062351656897:2:-1:-4:-3:-3:0:2:1:-0.328613:-0.821777:0.493652:-0.5625:-0.0625:-0.125
1562062351708902:-1:1:2:8:2:-2:-1:-2:-0.327637:-0.821289:0.484375:0:0.25:-0.125
1562062351753907:-1:-1:1:-1:-1:-3:-1:0:-0.326172:-0.821289:0.489258:0.8125:0.125:-0.0625
1562062351806912:-1:-5:-2:1:-1:1:0:1:-0.334473:-0.823242:0.486816:0.3125:0.1875:-0.125
1562062351858917:0:-1:0:2:2:-1:1:-1:-0.329102:-0.821289:0.491699:0.5:0.125:0
1562062351895921:-1:1:3:2:0:0:-2:1:-0.326172:-0.82666:0.489258:-0.5:0.1875:-0.125
1562062351956927:-1:-2:-2:1:-1:-1:-1:0:-0.33252:-0.81543:0.484863:-0.4375:-0.0625:0
1562062352008932:0:-4:-6:-4:0:-1:0:0:-0.328613:-0.819336:0.492676:0.375:0.25:-0.0625
1562062352056937:-2:-1:-2:-14:-4:-1:0:-1:-0.334961:-0.820801:0.489746:0.25:0.0625:-0.0625
1562062352099941:-1:-2:1:2:0:-3:0:-2:-0.325684:-0.824219:0.490723:0.1875:0.1875:0.0625
1562062352158947:-1:-1:0:-2:-1:-1:0:0:-0.329102:-0.818848:0.486816:-0.3125:0.0625:0.0625
1562062352210952:0:-2:-2:-8:-3:0:0:0:-0.328125:-0.822266:0.492676:0.125:0.0625:0.0625
1562062352255957:-2:2:1:3:-2:0:0:0:-0.327148:-0.818359:0.491699:0.3125:0.3125:0
1562062352308962:-1:-2:-2:1:0:-3:-2:-1:-0.334961:-0.823242:0.488281:0.0625:0:0.125
1562062352356967:-2:0:-3:1:-3:-2:0:-3:-0.333984:-0.819336:0.487305:0.3125:0.1875:0.0625
1562062352398971:-1:-2:-7:-3:-1:-1:-1:-2:-0.331543:-0.817383:0.498535:-0.125:0.0625:-0.125
1562062352458977:-1:-5:-1:2:-1:-1:-3:-1:-0.32959:-0.821777:0.489258:0:0.125:0.125
1562062352511982:-1:-3:-6:-9:-3:-1:-1:-1:-0.328613:-0.820312:0.495117:0:-0.125:-0.125
1562062352556987:-1:3:1:0:0:0:-1:-1:-0.334473:-0.817871:0.493164:-0.3125:0:-0.0625
1562062352607992:-1:-4:0:-5:-2:-2:0:1:-0.336914:-0.82373:0.496094:-0.1875:0.1875:0
1562062352656997:-1:1:-1:0:-1:-1:-2:-2:-0.326172:-0.823242:0.494141:-0.5625:0:-0.375
1562062352714003:-1:-4:3:0:0:0:0:0:-0.335938:-0.820801:0.487793:-0.3125:-0.125:0.125
1562062352760007:-2:2:2:-5:-2:-1:-1:-2:-0.330078:-0.82373:0.489746:-0.1875:-0.25:0
1562062352812012:-1:-3:-2:-1:-2:-1:-1:0:-0.33252:-0.81543:0.494141:-0.3125:-0.1875:0
1562062352859017:-2:-1:-2:-4:-2:-2:-2:-3:-0.335938:-0.821777:0.48877:0.3125:0.0625:0.0625
1562062352902021:0:1:3:2:-1:-1:-1:0:-0.333008:-0.821289:0.486328:-0.75:0:-0.0625
1562062352962027:-3:1:2:0:0:-1:0:-2:-0.32959:-0.820312:0.494141:0.375:0.125:0.125
1562062353013032:-3:-3:0:3:-1:-2:-2:1:-0.336426:-0.822754:0.491699:-0.75:-0.25:0.0625
1562062353059037:-1:-3:-8:4:3:-2:-2:-1:-0.331055:-0.816895:0.490723:0.5:0.25:0.0625
1562062353111042:-2:-5:2:1:0:-1:-1:-1:-0.331055:-0.817871:0.491699:-1.125:0:-0.1875
1562062353159047:-3:-1:1:4:-4:-3:-2:-2:-0.333984:-0.816895:0.487793:0.5:0.0625:-0.0625
1562062353219053:-1:2:2:4:2:1:-1:0:-0.33252:-0.822754:0.488281:-0.375:0.0625:0
1562062353262057:0:0:0:0:-1:-1:1:-1:-0.332031:-0.822266:0.486816:0.625:-0.0625:-0.1875
1562062353314063:-2:2:-2:-1:-1:-2:-3:0:-0.328613:-0.816895:0.48877:0.1875:-0.0625:0
1562062353360067:-1:2:-1:0:0:0:0:-1:-0.333008:-0.822266:0.493164:0.5625:-0.1875:-0.0625
1562062353420073:1:-2:-2:-1:1:1:-2:1:-0.333496:-0.817871:0.495605:0:0:-0.125
1562062353471078:0:-1:-4:-4:-2:-2:-2:0:-0.328613:-0.825195:0.490234:0.375:0.125:-0.1875
1562062353519083:-3:-2:-6:2:0:1:-2:-3:-0.332031:-0.821777:0.496094:-0.3125:0.0625:-0.125
1562062353562087:-1:1:2:-5:-1:-1:-2:0:-0.33252:-0.820801:0.490234:0.375:-0.125:0.0625
1562062353622093:-2:3:0:1:0:1:0:-1:-0.322754:-0.825684:0.48584:-0.5:0:-0.25
1562062353674099:1:-2:0:-1:-3:-1:-1:0:-0.343262:-0.816406:0.500488:-0.3125:0:-0.125
1562062353712102:0:-5:-4:-3:1:-1:0:1:-0.333008:-0.818848:0.488281:-0.875:0.0625:-0.1875
1562062353771108:-1:-1:-5:-3:1:1:-1:1:-0.327637:-0.819336:0.491699:0.1875:-0.0625:0
1562062353825114:0:-1:-4:-2:0:-2:-1:-1:-0.327637:-0.82959:0.496582:-0.3125:-0.0625:-0.0625
1562062353861117:-1:-2:2:3:-2:-2:0:0:-0.333008:-0.819824:0.486328:-0.875:0:-0.125
1562062353921123:0:0:1:1:-1:1:-2:-1:-0.333496:-0.817871:0.486816:0.4375:-0.0625:0
1562062353973128:-2:-7:0:2:1:1:1:1:-0.333008:-0.818359:0.492676:-0.5625:0.0625:0.0625
1562062354022133:-1:-9:2:-1:1:-2:-1:0:-0.32959:-0.822266:0.483398:0.5:0.1875:-0.0625
1562062354067138:0:1:-3:-1:-1:-1:-2:0:-0.330078:-0.816406:0.492188:-0.3125:-0.1875:-0.0625
1562062354127144:-3:-36:-7:-9:-12:2:-1:-3:-0.331055:-0.824219:0.48877:0.1875:0.4375:0.875
1562062354176149:5:-64:-16:-9:-64:-1:-5:9:-0.307617:-0.809082:0.508301:-6.0625:3.5625:5.8125
1562062354224154:22:127:-2:4:-7:-14:0:-7:-0.352051:-0.797363:0.437988:-46.5:5.625:6.125
1562062354273158:-39:-90:-50:-6:-11:13:-2:20:-0.296875:-0.891113:0.519043:-43.0625:11.9375:3.9375
1562062354330164:22:3:18:8:30:6:6:8:-0.35791:-0.953125:0.32373:-31:12.9375:-3.125
1562062354379169:10:106:47:-8:19:-1:3:18:-0.368652:-0.896973:0.34668:-3.625:8.3125:-3.1875
1562062354426174:27:-92:-21:6:-51:-7:11:38:-0.351074:-0.856445:0.364746:-7.6875:0.875:0.75
1562062354476179:-33:85:13:17:56:-9:-25:-55:-0.358887:-0.884277:0.367188:-0.4375:1:-2.4375
1562062354524184:42:105:79:-4:37:13:-2:-43:-0.348145:-0.85791:0.356934:-3.5:3.8125:-1.0625
1562062354573188:-43:5:76:-5:-16:13:1:-29:-0.350586:-0.90332:0.374512:2.0625:0.25:-0.5625
1562062354629194:12:-8:45:1:0:12:30:6:-0.359375:-0.86084:0.356445:2.9375:-0.625:1.0625
1562062354679199:-65:-28:-11:53:-6:-6:-28:-26:-0.361328:-0.847168:0.322266:15.1875:-6.3125:0.875
1562062354727204:-5:-13:1:-41:-1:0:-10:-3:-0.328125:-0.928711:0.433105:20.625:-7:-2.375
1562062354776209:10:-9:-4:-9:-3:1:-4:-11:-0.356934:-0.820801:0.370117:15.3125:-8.4375:2.625
1562062354828214:-3:-3:1:-3:-3:-2:-1:2:-0.358887:-0.839844:0.450195:36.1875:-5.8125:0.4375
1562062354883219:5:5:-3:2:-2:0:-2:0:-0.34082:-0.810059:0.454102:8.625:-8.875:-0.9375
1562062354929224:-3:-28:-6:4:0:-1:-2:-4:-0.338379:-0.827637:0.460938:11.25:-5.75:-3.25
1562062354979229:1:-1:4:-2:0:-1:-2:-1:-0.333984:-0.827148:0.484863:11.25:-2.5625:-4.5
1562062355027234:0:5:1:4:-3:-1:0:1:-0.32959:-0.833496:0.473633:-1.6875:0.1875:-3.75
1562062355076239:-1:4:0:23:-4:-2:-1:-3:-0.337891:-0.838379:0.456055:2.3125:-0.3125:-1.375
1562062355136245:-1:5:-3:2:0:-2:-4:-1:-0.333008:-0.836426:0.465332:3.6875:-1.125:-0.125
1562062355187250:-1:-1:-3:-1:-3:-1:-3:-2:-0.333984:-0.828125:0.476074:2.75:-0.25:-0.125
1562062355230254:-2:-2:-5:-3:0:0:-1:-1:-0.333984:-0.828613:0.481934:2.1875:0.625:-0.5
1562062355278259:0:4:-2:-3:1:1:1:-1:-0.331055:-0.827148:0.478027:1.8125:0.375:-0.5625
1562062355327264:2:0:4:4:-1:0:0:0:-0.329102:-0.828613:0.478027:2.125:0.4375:-0.1875
1562062355386270:0:2:-4:1:-2:0:0:0:-0.33252:-0.828125:0.483398:1.375:0.3125:0.0625
1562062355436275:-1:-2:-2:-1:-1:-1:0:0:-0.324707:-0.835449:0.479492:0.8125:0.125:-0.3125
1562062355487280:-1:-1:0:1:-2:-2:-1:-2:-0.338379:-0.821777:0.480957:0.5625:-0.1875:0.25
1562062355529284:0:-2:1:0:0:-2:-1:-2:-0.332031:-0.82959:0.48291:-0.375:-0.4375:0.1875
1562062355579289:-3:-29:-4:-3:-1:0:-1:1:-0.332031:-0.820801:0.478027:0.5:-0.375:0.0625
1562062355638295:1:5:1:-2:-1:0:-1:-1:-0.32959:-0.82959:0.485352:0.1875:-0.125:-0.0625
1562062355687300:0:-2:-8:-6:-1:-1:0:-2:-0.32959:-0.828125:0.483398:-0.6875:0:-0.125
1562062355728304:-2:0:1:2:-3:-3:-1:1:-0.323242:-0.833984:0.481445:1:0:-0.125
1562062355788310:1:7:3:0:1:2:0:-1:-0.333496:-0.826172:0.486328:-0.5:-0.0625:0.0625
1562062355832314:0:-1:-2:0:-1:-2:0:-1:-0.32666:-0.831543:0.480469:1.1875:0.0625:0.25
1562062355889320:-1:1:7:2:3:2:1:1:-0.330566:-0.821777:0.484375:0.3125:0.1875:-0.125
1562062355939325:-1:1:0:-2:-3:0:-1:0:-0.330078:-0.82666:0.481445:0.9375:0.3125:0
1562062355989330:-2:-1:0:2:0:1:-1:0:-0.333008:-0.825195:0.48291:0.1875:0.25:0
1562062356031334:-2:-2:-1:1:-5:-4:-3:0:-0.33252:-0.825195:0.481934:0.25:0.0625:0.0625
1562062356089340:0:1:2:-1:-2:-1:0:-2:-0.33252:-0.825195:0.481934:0.75:-0.1875:0
1562062356142345:0:-3:-1:1:-1:0:-1:0:-0.334473:-0.827637:0.486328:0.5:-0.1875:0
1562062356190350:1:-1:-1:-2:-2:-2:-2:0:-0.334961:-0.818848:0.492676:0.125:-0.3125:-0.0625
1562062356239355:-1:2:4:2:0:-1:-1:-1:-0.33252:-0.828613:0.48877:-0.1875:-0.0625:0
1562062356290360:0:3:-2:-1:-2:-1:0:-3:-0.333984:-0.825684:0.484375:0:-0.0625:0
1562062356332364:-1:0:-1:0:0:0:1:-1:-0.325195:-0.831055:0.491211:0.0625:-0.0625:-0.375
1562062356388370:-2:-2:-3:-1:-1:0:-2:1:-0.338867:-0.819824:0.48584:-0.4375:-0.125:0
1562062356440375:-1:-1:0:2:0:0:1:-1:-0.332031:-0.82666:0.489746:-0.4375:-0.25:0
1562062356488380:1:1:2:0:1:2:1:2:-0.328125:-0.822266:0.489746:-0.0625:-0.125:-0.1875
1562062356538385:-1:-1:-3:-2:-2:-3:2:-1:-0.331543:-0.827148:0.491699:0.125:-0.0625:0
1562062356590390:3:3:2:0:-1:2:0:-1:-0.333496:-0.826172:0.486328:0:0.1875:-0.0625
1562062356644396:0:0:-3:0:-1:1:1:-1:-0.329102:-0.822754:0.484375:0.1875:0.0625:0.0625
1562062356691400:0:2:2:1:1:-1:-1:-1:-0.32959:-0.82373:0.484375:-0.0625:0.0625:0
1562062356741405:-1:-1:0:3:-1:-2:-3:0:-0.332031:-0.82666:0.489258:0.0625:0.0625:-0.0625
1562062356793410:0:1:0:-1:-3:-1:0:1:-0.333984:-0.822754:0.482422:0:0.125:0
1562062356831414:-1:0:0:-2:-1:0:0:-2:-0.331543:-0.821777:0.483398:0.1875:-0.0625:0
1562062356891420:1:-1:-3:-4:0:-1:-1:-1:-0.335938:-0.82666:0.487793:-0.125:0:0
1562062356944426:0:0:-4:-2:-1:1:1:1:-0.33252:-0.828125:0.48584:-0.0625:-0.1875:-0.0625
1562062356992430:0:-4:-5:-3:0:0:0:-1:-0.33252:-0.823242:0.483887:0:-0.125:0
1562062357040435:-4:-3:-3:-1:-2:-3:-2:-3:-0.32666:-0.824219:0.481445:0.5:-0.1875:0
1562062357092440:-2:-2:0:-2:-1:-1:-1:0:-0.331055:-0.824707:0.486816:-0.0625:-0.125:0.125
1562062357148446:0:-1:-3:-1:-4:-2:-1:-1:-0.333496:-0.821777:0.480957:-0.375:0.25:-0.125
1562062357190450:-1:0:1:-2:1:-1:0:0:-0.325684:-0.831543:0.487305:-0.5:0:-0.375
1562062357243455:0:-2:-6:0:-1:-3:-1:-2:-0.342285:-0.822266:0.487793:-0.3125:0:-0.125
1562062357292460:0:1:2:0:4:2:2:1:-0.335449:-0.827637:0.485352:-0.5:-0.0625:-0.0625
1562062357340465:0:0:-4:-2:0:0:0:0:-0.326172:-0.821289:0.486816:-0.4375:0:-0.125
1562062357401471:-2:1:7:-1:-1:-1:-1:0:-0.32959:-0.827148:0.480957:0.25:0.125:0.1875
1562062357447476:-3:0:-3:2:0:-1:1:1:-0.333496:-0.826172:0.481445:0.1875:0:-0.1875
1562062357497481:0:-2:-4:-2:-3:-2:-1:-1:-0.332031:-0.822266:0.483887:0.3125:0:0.125
1562062357551486:0:0:3:-1:1:1:2:1:-0.33252:-0.824707:0.48291:-0.0625:0.1875:0
1562062357594491:0:-1:3:2:-3:-3:-2:-2:-0.332031:-0.822754:0.485352:0.125:-0.0625:-0.0625
1562062357650496:2:0:-2:1:0:0:-1:0:-0.32959:-0.827637:0.487793:0.3125:0.125:-0.0625
1562062357693500:-2:-3:-3:-1:-1:-2:-2:-1:-0.331543:-0.822266:0.484375:0.125:0:0
1562062357747506:-1:1:0:-1:0:0:0:0:-0.331055:-0.824219:0.485352:0.1875:0.0625:0
1562062357791510:-1:-3:-3:-3:-2:0:0:0:-0.331543:-0.821777:0.486328:0.25:0:0
1562062357851516:1:-1:1:1:1:0:-1:-1:-0.333496:-0.828613:0.48291:0.5625:0.0625:-0.0625
1562062357904522:-1:-1:4:3:-2:1:-1:-1:-0.329102:-0.825195:0.489258:0.0625:-0.125:0.0625
1562062357954527:-1:-3:-6:-1:0:0:2:-3:-0.332031:-0.825195:0.486816:0.125:0.0625:0
1562062357994531:1:0:1:-5:-3:0:0:-2:-0.33252:-0.821777:0.485352:-0.0625:0.125:0
1562062358053536:0:-1:1:0:-1:-1:-3:-1:-0.328613:-0.825684:0.487305:0.9375:0.1875:0.25
1562062358106542:-3:-17:-5:1:-1:-1:-1:-1:-0.338379:-0.815918:0.48877:-0.875:-0.1875:0
1562062358154547:2:-1:-2:0:-1:-2:-2:-2:-0.331055:-0.825195:0.48584:0.9375:0.0625:0
1562062358203551:0:7:-4:-3:-2:-2:-3:-1:-0.32959:-0.825195:0.490723:-0.5625:-0.125:0.0625
1562062358254557:0:-2:3:-2:-1:-2:0:0:-0.338379:-0.816895:0.489258:0.6875:0.125:0.125
1562062358293560:0:8:-2:-3:-1:0:-1:1:-0.330078:-0.827148:0.490234:-0.5:-0.1875:-0.1875
1562062358353566:1:-6:0:-1:-1:-1:1:-1:-0.332031:-0.816895:0.489746:-0.1875:0.125:-0.0625
1562062358406572:-1:7:2:2:-1:0:-1:0:-0.333496:-0.828613:0.484375:0.6875:0:-0.0625
1562062358454577:0:-1:2:0:1:0:0:1:-0.330078:-0.823242:0.478027:-0.3125:-0.0625:0
1562062358504582:0:-2:-2:1:-1:-1:-2:-2:-0.333984:-0.825195:0.484863:0.125:-0.125:0
1562062358556587:-2:-6:-11:-2:-3:-2:-3:-2:-0.330078:-0.82373:0.487305:-0.25:-0.0625:0
1562062358609592:0:0:0:0:0:-1:-2:0:-0.331055:-0.824707:0.483887:0.375:-0.0625:0
1562062358654597:3:2:4:1:1:2:0:0:-0.333496:-0.824707:0.484375:-0.25:0:-0.0625
1562062358706602:0:3:-1:0:-1:-2:0:-1:-0.332031:-0.824219:0.483887:0.0625:-0.125:-0.125
1562062358756607:1:7:1:-1:-2:-2:-1:0:-0.327637:-0.824707:0.486816:0.1875:-0.125:-0.125
1562062358812612:-1:3:-1:-4:-2:-2:-1:0:-0.334473:-0.822266:0.485352:-0.0625:-0.125:0.0625
1562062358856617:-2:-11:-10:-4:-1:-1:1:0:-0.334961:-0.816406:0.48584:-0.375:-0.125:0.125
1562062358910622:-2:5:1:1:3:0:-1:-1:-0.331055:-0.820801:0.487305:0.9375:0.375:0.125
1562062358953626:3:14:-2:-9:-6:1:-2:0:-0.344238:-0.820801:0.484863:-1.9375:-0.125:1.375
1562062359013632:17:20:14:3:34:0:5:26:-0.339355:-0.797852:0.473145:-15.8125:3.625:6.125
1562062359057637:5:30:14:5:23:5:10:59:-0.320312:-0.831543:0.473633:-29.9375:7.375:6.8125
1562062359117643:-6:-73:-29:-8:23:-3:-6:-4:-0.327637:-0.825195:0.469727:-22.625:10.8125:3.8125
1562062359155647:9:40:0:5:-29:-1:1:-14:-0.368164:-0.832031:0.418945:-30.0625:13.8125:-2.375
1562062359209652:3:76:-71:1:40:6:6:17:-0.371582:-0.883789:0.395508:-1.125:6.75:-0.3125
1562062359256657:-7:-35:35:6:-25:1:1:-9:-0.364746:-0.836426:0.379395:2.4375:1.5625:2.625
1562062359316663:-7:1:-56:1:19:1:-2:-1:-0.344727:-0.87207:0.44043:3.9375:1:2.0625
1562062359365668:-4:-30:-21:3:-3:-5:-1:5:-0.36084:-0.794922:0.37207:0:0.9375:0.375
1562062359418673:15:34:68:12:7:2:5:12:-0.362793:-0.830078:0.399414:6.3125:1.5:1.3125
1562062359456677:0:32:21:3:7:0:0:-6:-0.364258:-0.887207:0.413086:0.875:-2.4375:-1.125
1562062359516683:-6:3:-2:1:-2:-4:-3:-4:-0.365723:-0.829102:0.381836:13.5:-7.0625:-2.3125
1562062359569688:-3:0:1:8:-2:0:3:-10:-0.339844:-0.859375:0.464844:17.8125:-8.125:-3.3125
1562062359620693:0:-1:1:3:4:-2:-2:0:-0.338379:-0.831055:0.446289:4.5625:-4.6875:-1.625
1562062359658697:0:-1:-5:-8:0:0:2:-1:-0.343262:-0.861328:0.459473:16.6875:-2.0625:-3.625
1562062359718703:-1:-2:1:-1:0:-1:2:2:-0.346191:-0.808105:0.467285:15.375:-1.125:-4.5
1562062359771708:-1:1:2:5:4:-1:1:1:-0.338379:-0.831055:0.474609:1.375:-2.25:-3
1562062359819713:-1:10:1:1:-1:-2:3:1:-0.342285:-0.819336:0.475098:4.125:-2.4375:-0.9375
1562062359869718:-3:-2:1:-3:-1:0:1:-1:-0.327637:-0.831055:0.485352:1.0625:-0.3125:-0.875
1562062359919723:0:-1:-9:-4:-2:-1:-2:-1:-0.343262:-0.81543:0.474121:0.375:0.125:-0.875
1562062359958727:2:-1:-1:2:-1:-2:-1:-1:-0.333008:-0.831055:0.491699:0.75:0.3125:-0.875
1562062360018733:1:8:2:-2:-2:-3:-2:1:-0.333008:-0.822754:0.476074:1.1875:0.375:-0.5
1562062360072738:-1:0:1:0:0:-1:-2:0:-0.334961:-0.820801:0.486328:1.0625:-0.25:-0.3125
1562062360118743:-1:-2:-2:-2:-1:-1:0:-2:-0.330566:-0.824707:0.48584:0.6875:-0.4375:-0.3125
1562062360168748:-3:-16:2:-1:-1:-1:-2:-2:-0.338379:-0.819824:0.491211:0.25:-0.4375:-0.1875
1562062360219753:-1:2:1:-2:0:0:-2:1:-0.335938:-0.830566:0.485352:0.0625:-0.375:-0.125
1562062360274759:-1:3:5:-2:-2:0:-1:-2:-0.334961:-0.820801:0.481445:0.5625:-0.25:-0.25
1562062360318763:0:-1:-2:-1:-1:1:-1:-1:-0.331543:-0.825195:0.489258:-0.3125:-0.25:-0.0625
1562062360371768:1:2:2:1:0:1:-1:0:-0.334473:-0.818359:0.479004:0.25:-0.3125:-0.0625
1562062360423773:0:-2:-1:-2:-1:1:-3:-1:-0.333496:-0.825195:0.484863:-0.3125:-0.4375:0
1562062360477779:0:-1:-4:0:0:-1:-1:0:-0.333984:-0.82373:0.481934:0:-0.4375:0
1562062360521783:1:1:5:0:1:2:3:-1:-0.33252:-0.821289:0.47998:-0.5625:-0.8125:0.125
1562062360574789:2:3:4:4:-2:-2:1:-1:-0.336914:-0.822754:0.482422:-0.8125:-0.6875:0.3125
1562062360618793:-2:-3:-3:-4:-3:-3:-1:1:-0.333008:-0.819336:0.482422:-1.625:-1.25:0.0625
1562062360678799:0:0:-1:1:0:-1:1:3:-0.333008:-0.829102:0.478516:-3.9375:-2.75:0.375
1562062360722803:-1:0:-2:0:-2:-2:-2:9:-0.32666:-0.829102:0.485352:-3.125:-3.1875:2.4375
1562062360777809:0:0:4:5:2:-2:6:4:-0.338379:-0.814453:0.479004:-11.5:-2.5625:0.5
1562062360820813:-3:-3:-8:-5:-1:-1:-6:-9:-0.323242:-0.841309:0.470703:-8.875:-1:1.5625
1562062360881819:-1:5:-2:-1:-1:-2:0:4:-0.341309:-0.829102:0.467773:-4.75:0.4375:2.4375
1562062360918823:0:1:4:5:-1:3:3:1:-0.330566:-0.837402:0.462402:-5.8125:0.75:3.3125
1562062360977829:1:0:-1:3:4:2:1:0:-0.333008:-0.844727:0.453125:-4.9375:1.0625:4
1562062361019833:-2:0:3:4:-1:-3:-2:-2:-0.344238:-0.836914:0.45459:-2.9375:0.8125:4.5
1562062361079839:0:1:-1:-1:0:-1:-3:-4:-0.350098:-0.836426:0.453125:-2.9375:1.4375:4.0625
1562062361120843:0:0:-1:1:1:0:0:3:-0.352539:-0.831055:0.454102:-1.75:1.125:2.875
1562062361180849:0:1:-3:0:-3:0:-1:-1:-0.359375:-0.838379:0.443848:-1.8125:0.1875:1.9375
1562062361236855:-1:0:-7:-4:-4:-2:-3:1:-0.355957:-0.839844:0.438965:-1.75:-0.625:0.9375
1562062361280859:-1:-3:1:-1:0:0:-2:0:-0.345215:-0.847656:0.439453:-1.0625:-1.1875:1.125
1562062361322863:0:-1:0:6:-6:-1:-2:-2:-0.348145:-0.844727:0.448242:3.5625:-4.9375:0.75
1562062361383869:1:-1:0:-2:-6:0:1:0:-0.308105:-0.879395:0.479492:2.625:-8.5625:-2.5
1562062361436875:-2:-4:-2:-2:0:-1:2:-1:-0.273438:-0.821289:0.532227:19.9375:-20.5:-5.4375
1562062361481879:0:-3:-9:-6:-3:-2:-3:-2:-0.326172:-0.838379:0.507324:12.375:-20.9375:-9.0625
1562062361537885:0:-1:-4:-4:1:0:1:1:-0.302734:-0.862305:0.52832:49.5:-13.9375:-14.375
1562062361581889:-2:-3:-6:0:-2:-2:-3:-3:-0.273438:-0.750977:0.482422:17.125:-18.875:-5.4375
1562062361638895:1:-2:-6:-1:-1:1:1:3:-0.303711:-0.710449:0.441895:10.5:-8.5:3.75
1562062361683899:1:2:5:0:3:2:1:0:-0.314941:-0.766602:0.497559:3.0625:-4.625:11
1562062361735905:1:3:0:6:-4:-4:-2:-3:-0.323242:-0.789062:0.505371:-10.25:-4.9375:11.5
1562062361781909:-2:-1:-3:12:3:-1:-3:-6:-0.337402:-0.806152:0.524902:-6.5:-7.875:9.125
1562062361836915:0:10:-1:-12:-2:-4:-1:-1:-0.347656:-0.818848:0.558105:-5.125:-10.1875:9.3125
1562062361880919:0:4:-4:-2:3:2:3:2:-0.335938:-0.797363:0.573242:-2:-11.5:9.1875
1562062361941925:-2:-7:-2:-2:1:-1:-2:-2:-0.323242:-0.790039:0.545898:-1.5:-11.3125:10.625
1562062361982929:-2:-9:3:2:3:-1:-2:0:-0.319336:-0.788574:0.55127:-5.625:-9.8125:12.1875
1562062362035935:-1:16:4:18:2:-1:1:1:-0.325195:-0.772949:0.52832:-4.875:-8.5:10.6875
1562062362081939:-1:-2:6:-8:-10:-2:0:-3:-0.332031:-0.778809:0.535645:-9.25:-9.4375:9.625
1562062362140945:-1:3:-7:0:-3:-1:2:-2:-0.335449:-0.783691:0.548828:-3.9375:-7.8125:8.8125
1562062362185950:-2:-3:-2:0:-2:-1:-3:-2:-0.337402:-0.796387:0.574219:-3.875:-8.4375:7.1875
1562062362238955:-3:-35:-4:3:3:-1:-1:0:-0.29834:-0.772949:0.543457:-4.3125:-8.375:3.0625
1562062362283959:-1:-1:3:10:2:-2:0:0:-0.294922:-0.803711:0.551758:-0.8125:-4:3.625
1562062362343965:-2:0:-2:-3:-4:-2:-5:-1:-0.301758:-0.784668:0.562988:-3:-3.8125:3.4375
1562062362384970:0:14:0:-9:3:2:-1:-2:-0.312012:-0.776367:0.557129:0.4375:-1:3
1562062362443975:-1:8:1:10:-2:-1:-3:-1:-0.331543:-0.791504:0.541992:-1.3125:-0.8125:2.6875
1562062362485980:-1:-15:4:13:-2:-2:-1:-1:-0.336426:-0.78125:0.536133:0.0625:-0.75:1
1562062362545986:-1:13:-2:19:-2:-1:1:-1:-0.32666:-0.782227:0.532227:0.1875:-1.4375:-0.75
1562062362582989:-1:-1:0:11:-2:-4:-2:-6:-0.334961:-0.78418:0.544922:0.75:-2:-1.3125
1562062362643995:-2:-6:-4:1:-3:-3:-2:-1:-0.327637:-0.800293:0.546387:-1.0625:-1.125:-1.5
1562062362696001:-4:-28:-7:-10:0:1:-1:-1:-0.321289:-0.786621:0.550293:0.5625:0.3125:0.125
1562062362745006:-1:0:1:-5:-2:-3:-1:-3:-0.324707:-0.791504:0.546875:-1.25:1.625:0.875
1562062362786010:1:10:2:0:3:0:0:-1:-0.323242:-0.782715:0.547852:0.4375:2.8125:1.375
1562062362846016:0:-2:4:-4:0:0:-2:-1:-0.326172:-0.786621:0.542969:-0.375:3:0.4375
1562062362884019:0:-1:3:5:1:-1:2:1:-0.335938:-0.786621:0.53418:-1.1875:2.5:-0.75
1562062362943025:-1:0:0:-6:0:1:0:1:-0.336914:-0.794434:0.532715:-1.625:1.4375:-0.375
1562062362999031:-1:-2:-12:-3:-2:-1:-1:-1:-0.335938:-0.784668:0.542969:0.75:0.5:0.375
1562062363044035:-1:1:-1:-9:-7:-3:-2:-1:-0.335449:-0.788086:0.543945:0.3125:-0.4375:0.3125
1562062363102041:3:15:3:-1:2:2:2:0:-0.326172:-0.79248:0.548828:0.3125:-0.4375:-0.3125
1562062363147046:0:-1:2:8:-5:-3:-2:0:-0.321777:-0.788086:0.541504:0.375:0:-0.75
1562062363199051:-2:-1:0:-3:0:-2:-1:0:-0.332031:-0.789551:0.544434:1.25:0:-0.25
1562062363243055:-3:-5:-6:-1:1:-1:-1:-2:-0.333008:-0.783691:0.54248:1.0625:-0.0625:-0.0625
1562062363288060:-2:-4:-6:5:5:0:-2:0:-0.331543:-0.789062:0.544434:1.75:-0.0625:-0.3125
1562062363349066:0:2:5:0:-3:1:-1:2:-0.330566:-0.785156:0.546875:1.5:-0.375:-0.625
1562062363401071:0:-1:0:0:0:0:1:0:-0.329102:-0.785156:0.544434:0.75:-0.3125:-0.625
1562062363446076:1:8:0:4:3:0:-1:0:-0.331543:-0.779785:0.55127:-1.4375:-0.25:-0.6875
1562062363498081:-1:-5:-4:-6:-6:-6:-2:-2:-0.330566:-0.781738:0.541016:-0.4375:-0.125:0.0625
1562062363548086:0:2:-1:-2:5:1:1:-2:-0.325195:-0.786133:0.547852:-0.6875:-0.25:-0.5
1562062363604091:0:4:-1:-3:-3:0:0:1:-0.331543:-0.78125:0.550781:-1.3125:-0.3125:-0.5
1562062363649096:1:9:3:-2:-2:-1:0:-1:-0.32959:-0.787109:0.540527:-0.25:0.125:-0.375
1562062363702101:2:2:0:-3:0:-1:-1:-1:-0.326172:-0.788086:0.54248:-1:-0.25:-0.3125
1562062363746106:-2:-1:2:1:1:1:-2:0:-0.329102:-0.789551:0.543457:-1.0625:0.375:-0.125
1562062363807112:-1:1:-4:1:0:3:3:0:-0.326172:-0.787598:0.546875:-0.5:-0.0625:0.125
1562062363847116:1:3:2:0:-2:-3:-1:1:-0.327637:-0.789062:0.545898:-1.6875:0.125:-0.0625
1562062363908122:1:0:0:-5:0:-1:1:0:-0.325195:-0.789551:0.546875:-0.0625:0.75:0.0625
1562062363949126:-2:-3:-5:-4:-2:-1:-1:-1:-0.327148:-0.791016:0.543457:-1.0625:0.625:-0.125
1562062364009132:-1:-1:1:0:1:-1:-1:-3:-0.328125:-0.791992:0.541016:-1.0625:-0.0625:0.0625
1562062364046136:-2:0:2:3:-3:-1:0:-1:-0.331055:-0.79248:0.538574:0.25:0.1875:-0.0625
1562062364106142:-2:-10:-3:1:0:-2:-2:-2:-0.333008:-0.788086:0.53418:-1:-0.5625:-0.3125
1562062364159147:-1:-4:-1:-5:-5:0:0:0:-0.324707:-0.787109:0.532715:-0.25:-0.1875:-0.25
1562062364203151:1:-1:1:8:8:0:1:-1:-0.324707:-0.789062:0.530762:-0.6875:-0.25:-0.4375
1562062364248156:0:0:0:2:-2:0:1:2:-0.33252:-0.786133:0.539551:-0.0625:-0.3125:-0.4375
1562062364309162:0:1:-2:1:0:-3:-2:0:-0.32666:-0.791992:0.541016:-0.75:-0.6875:-0.1875
1562062364362167:2:-2:-1:4:-3:-1:1:2:-0.325684:-0.788086:0.539551:-0.375:-0.25:0
1562062364409172:-1:-1:-2:5:0:-3:0:-3:-0.319336:-0.789551:0.540527:-0.4375:0:0.125
1562062364453176:2:12:5:1:-1:1:-1:0:-0.32959:-0.793457:0.541992:-0.9375:-0.4375:0.4375
1562062364512182:0:12:1:3:-2:-1:1:-2:-0.330566:-0.787109:0.534668:0.25:0.0625:0.25
1562062364563187:-2:-4:-10:-3:4:-2:-1:-1:-0.32373:-0.793457:0.535645:-0.5:-0.25:0.125
1562062364608192:-3:-6:-7:-4:-15:-2:0:-2:-0.333984:-0.787109:0.536133:0.5625:0.1875:-0.25
1562062364661197:-1:1:0:0:-2:-3:1:-3:-0.326172:-0.785645:0.539062:1.75:0.5:-0.25
1562062364709202:-1:-12:-11:1:11:-2:0:1:-0.340332:-0.777832:0.543945:-11.5:3.25:3.9375
1562062364751206:-14:-92:-22:1:35:-1:-3:0:-0.338867:-0.80957:0.514648:-22.125:4.9375:5.625
1562062364811212:-4:48:-31:4:-27:-13:-7:5:-0.348145:-0.812988:0.499023:-10.125:3.75:5.625
1562062364863217:12:54:46:33:15:-8:6:4:-0.350586:-0.772461:0.501953:-33.375:9.375:-2.25
1562062364909222:1:82:-37:-8:-21:-17:-15:-91:-0.377441:-0.851074:0.469727:1.625:1.3125:8.0625
1562062364962227:-16:74:95:10:-93:-11:-5:19:-0.381348:-0.782715:0.467773:3.25:2.875:7.4375
1562062365014232:17:-73:40:2:-37:-11:-15:-47:-0.356934:-0.800781:0.48291:6.1875:-1.4375:4.625
1562062365067238:-29:-128:39:7:94:4:-8:-32:-0.316895:-0.840332:0.45166:-31.5:4.1875:2.75
1562062365111242:15:-36:11:67:6:6:2:7:-0.358887:-0.820801:0.467285:4.25:-2.875:1.25
1562062365163247:1:0:10:-14:-10:1:8:-2:-0.355469:-0.808594:0.531738:9.3125:-5.625:0.625
1562062365212252:7:-10:-7:-44:-7:-1:0:2:-0.315918:-0.785156:0.529297:31.8125:2.75:-6.4375
1562062365269258:1:1:6:-39:-2:1:-3:2:-0.381348:-0.770508:0.50293:4.0625:0.625:-12.1875
1562062365314262:2:-1:1:21:-5:-2:1:1:-0.375:-0.821777:0.497559:1.6875:-7.3125:-6.3125
1562062365367268:-2:1:0:7:-1:-2:0:-2:-0.347168:-0.79248:0.514648:7.8125:-9.625:-6.25
1562062365411272:0:-2:-1:-19:1:2:-1:-1:-0.306152:-0.774902:0.554199:6.0625:-5.875:-3.1875
1562062365471278:-2:1:-1:16:-3:-1:5:-1:-0.291992:-0.792969:0.569336:-0.1875:-2.625:-3.625
1562062365523283:-1:-2:-1:-2:-1:-1:-2:-1:-0.319336:-0.790039:0.545898:-0.8125:1.0625:-2.875
1562062365571288:0:-1:-3:-6:-1:-2:-3:-1:-0.334473:-0.793457:0.536621:-0.125:1.3125:-1.5625
1562062365614292:-1:1:1:-3:-2:0:0:2:-0.32373:-0.79248:0.529297:-0.6875:1.1875:-1.0625
1562062365674298:-1:-2:-5:-3:-3:-1:-1:1:-0.316406:-0.795898:0.532715:0.3125:-0.125:-1.25
1562062365726304:-1:-1:2:-1:1:1:-1:1:-0.320801:-0.799316:0.533691:-0.375:-0.8125:-0.5
1562062365771308:-2:-3:-5:-5:-3:-2:-2:-3:-0.320312:-0.797363:0.542969:0.75:-0.8125:-0.3125
1562062365824313:-2:-1:-2:3:0:-1:-3:-2:-0.320801:-0.789551:0.544434:0.25:-0.5:-0.6875
1562062365873318:0:-1:-1:1:-2:-2:1:0:-0.318359:-0.790527:0.540039:0.1875:-0.5:-1.1875
1562062365928324:0:0:-1:3:-2:-1:-1:-2:-0.318848:-0.790527:0.541016:-0.5:-0.25:-1.4375
1562062365974328:1:-1:1:-1:0:0:1:0:-0.315918:-0.792969:0.541016:0.4375:-0.5:-1.125
1562062366026334:1:1:2:-7:1:0:0:0:-0.313477:-0.791016:0.541504:0:-0.6875:-0.9375
1562062366071338:0:-2:-4:-6:-2:-1:0:-1:-0.313965:-0.793945:0.54248:0.8125:-1:-0.0625
1562062366117343:-1:-2:-4:-8:-4:-2:-2:-1:-0.310059:-0.79834:0.535645:0.5625:-0.625:-0.0625
1562062366177349:-2:-2:-7:-5:-4:-2:-2:1:-0.318359:-0.786133:0.548828:-0.1875:-0.5:0.1875
1562062366229354:0:0:-2:4:1:2:0:3:-0.320312:-0.792969:0.543457:0.1875:-0.25:0.1875
1562062366274358:-2:-1:0:-5:-3:1:-1:0:-0.310547:-0.790527:0.543945:0.0625:-0.1875:-0.1875
1562062366326364:-3:0:-1:2:-2:-3:-2:0:-0.314453:-0.796387:0.544434:0.4375:-0.25:0.0625
1562062366375369:0:1:0:-1:1:-1:-1:0:-0.319824:-0.794434:0.540527:0:-0.25:0.125
1562062366434374:-1:-3:-8:-3:-4:-2:-2:0:-0.31543:-0.789062:0.54248:-0.25:-0.375:0.0625
1562062366477379:1:-1:0:0:0:-1:-1:0:-0.315918:-0.788086:0.538086:-0.1875:-0.5625:-0.1875
1562062366529384:0:-1:-4:-1:-1:-1:1:-1:-0.310547:-0.787109:0.550293:1.4375:-0.3125:-0.0625
1562062366574388:0:0:4:0:0:1:2:3:-0.311035:-0.798828:0.541992:-0.1875:-0.3125:-0.125
1562062366634394:1:1:4:-3:-2:-2:-2:0:-0.314941:-0.785156:0.547852:-0.5:-0.625:-0.375
1562062366686400:0:1:0:0:-6:0:-2:0:-0.317383:-0.789062:0.544922:-0.0625:-1.0625:-0.5
1562062366735405:-1:-4:-5:-2:0:-2:-1:-2:-0.310547:-0.792969:0.544922:0.3125:-1.0625:-0.125
1562062366776409:0:0:-3:-9:-3:1:1:0:-0.3125:-0.787598:0.545898:0.0625:-1.125:-0.125
1562062366837415:0:1:4:-2:-3:-1:-1:2:-0.305176:-0.793457:0.544922:-0.5:-1.3125:0.1875
1562062366888420:0:-2:0:8:0:-1:1:0:-0.306641:-0.793945:0.547852:-0.0625:-0.5625:0.1875
1562062366934424:0:-1:-2:1:-1:-1:0:-1:-0.307617:-0.791016:0.55127:-0.4375:-0.3125:0.0625
1562062366987430:-2:-3:-5:0:-4:-2:-3:-2:-0.313477:-0.787598:0.543457:-0.1875:-0.125:0.125
1562062367039435:0:0:-1:-2:-2:-2:-1:-1:-0.302734:-0.79248:0.550781:0.125:0.1875:0
1562062367091440:-1:-1:-1:-7:2:1:-1:-2:-0.313477:-0.794922:0.544434:-1.0625:-0.125:0.125
1562062367136445:-1:-2:-1:-2:-1:0:-1:0:-0.313965:-0.790527:0.546875:0.875:-0.25:0.375
1562062367189450:-1:3:2:-4:-1:1:1:-1:-0.30957:-0.792969:0.538574:-0.5:-0.5:-0.3125
1562062367237455:-1:-1:-1:-1:-2:0:0:-3:-0.314941:-0.785645:0.548828:-0.125:-0.5:-0.5
1562062367279459:-1:0:0:-4:1:2:1:1:-0.312988:-0.792969:0.546875:0.125:-0.1875:-0.125
1562062367340465:-2:0:3:-1:-2:0:0:0:-0.306641:-0.790039:0.552246:1:-0.25:0.0625
1562062367391470:0:1:-1:-1:-1:0:0:-1:-0.30957:-0.791992:0.546875:-0.1875:-0.25:0
1562062367436475:1:-1:-2:2:2:4:0:0:-0.307129:-0.788574:0.547363:0.25:-0.125:-0.0625
1562062367488480:-2:-1:-3:0:-4:-4:-1:-2:-0.310547:-0.791504:0.54541:-1.0625:-0.125:-0.125
1562062367537485:1:0:3:-1:0:-1:2:1:-0.308594:-0.791992:0.541992:-0.5625:-0.125:-0.0625
1562062367580489:0:-2:0:-4:0:0:1:0:-0.311035:-0.789062:0.543457:0:-0.0625:0.0625
1562062367641495:1:-1:-2:-4:-2:-3:-1:1:-0.30957:-0.796387:0.541992:0.0625:0.1875:0.125
1562062367692500:0:0:-2:-3:1:-2:-1:-1:-0.312988:-0.791992:0.547852:-0.5:0.125:0.0625
1562062367740505:-1:-1:-3:1:1:0:-3:0:-0.30957:-0.790527:0.544922:0.25:0:0.0625
1562062367788510:-1:-1:-5:2:-3:-3:-1:-1:-0.312988:-0.787598:0.54248:-0.375:-0.25:0.125
1562062367845516:0:-1:2:1:-1:-1:-2:0:-0.31543:-0.787598:0.546875:0.5625:-0.4375:0.3125
1562062367894520:0:-1:-1:-7:1:-2:-1:0:-0.307617:-0.797363:0.54541:-0.1875:-0.25:-0.25
1562062367941525:-1:-2:-4:-3:-1:0:-2:-2:-0.314941:-0.790527:0.555664:-0.625:-0.25:-0.1875
1562062367991530:0:-1:1:2:3:1:2:0:-0.312012:-0.785156:0.544922:0.125:0.125:0.1875
1562062368042535:-1:2:2:4:-4:0:0:0:-0.305176:-0.792969:0.540527:-0.0625:-0.1875:-0.0625
1562062368098541:1:3:1:0:0:-2:1:0:-0.312988:-0.789551:0.541992:0.25:-0.25:-0.125
1562062368144545:0:0:4:3:-5:-1:-1:-1:-0.311523:-0.795898:0.548828:0.4375:0.0625:-0.0625
1562062368194550:0:2:-1:4:2:0:0:1:-0.307129:-0.787109:0.55127:0.25:-0.25:-0.25
1562062368241555:-2:-1:-4:-4:-3:-2:-3:-3:-0.313965:-0.791504:0.543945:0.5:-0.125:-0.25
1562062368290560:-1:-2:-1:0:2:1:0:-3:-0.307129:-0.789062:0.548828:0.125:-0.3125:-0.3125
1562062368342565:-1:-1:-5:2:-1:0:1:0:-0.310059:-0.791016:0.547363:-0.125:-0.25:0.0625
1562062368398571:-2:-23:-2:1:2:-3:-1:0:-0.311523:-0.787598:0.552246:-0.8125:0:0.9375
1562062368444575:-1:1:-3:-8:-2:-2:-2:-2:-0.3125:-0.79248:0.54834:-0.125:-0.8125:0.3125
1562062368494580:-1:1:-1:-3:-2:1:0:-2:-0.309082:-0.78418:0.548828:1.875:-0.375:0
1562062368542585:-1:-3:3:0:1:-3:-2:-1:-0.303711:-0.794922:0.546387:-0.5:-0.5:-0.3125
1562062368591590:-1:1:-3:-1:-1:-1:-2:-1:-0.311035:-0.785156:0.54541:0.375:-0.375:-0.375
1562062368643595:-1:0:-3:0:5:-1:-1:-1:-0.311035:-0.788086:0.553711:0.75:-0.25:-0.0625
1562062368696601:-1:-2:1:-1:-2:-1:0:-1:-0.311523:-0.786133:0.54541:0.1875:-0.5:-0.25
1562062368743605:-2:-3:0:0:-2:-2:-3:-2:-0.308105:-0.793945:0.545898:-0.125:0:-0.8125
1562062368794610:1:-4:-5:0:2:1:-1:-1:-0.305176:-0.788086:0.554199:-0.125:-0.0625:-0.625
1562062368842615:-2:0:3:-1:-1:-1:-1:1:-0.310547:-0.791016:0.544922:-0.0625:-0.0625:0
1562062368902621:-2:-7:-7:-6:-4:-3:-4:-2:-0.304199:-0.788574:0.552734:-0.5625:-0.375:-0.0625
1562062368944625:1:5:5:2:13:1:0:-1:-0.308594:-0.794922:0.55127:-0.3125:-0.0625:0.5625
1562062368996631:0:4:0:-3:-23:2:2:-5:-0.30957:-0.799316:0.556152:-14.875:2.25:5.3125
1562062369044635:-13:-3:-15:0:12:-3:-11:-73:-0.310059:-0.795898:0.499023:-45.3125:8.125:9.1875
1562062369104641:20:20:21:22:61:-5:7:17:-0.344727:-0.771973:0.507812:-29.125:6.125:5.875
1562062369153646:31:87:38:3:-18:-13:-7:25:-0.344727:-0.860352:0.525391:-12.9375:4.5625:10.375
1562062369200651:9:-44:-72:-11:26:9:3:25:-0.320801:-0.839844:0.430664:-2.9375:-0.9375:7.875
1562062369251656:-29:-22:35:-4:-92:-4:9:3:-0.38916:-0.787598:0.468262:5.75:-1.4375:4.1875
1562062369296661:3:-41:8:22:53:9:14:-3:-0.353516:-0.837891:0.492188:5.4375:-4.0625:2.8125
1562062369344665:-6:26:10:10:20:0:-13:13:-0.338379:-0.815918:0.499512:2.8125:-1.5625:-3.375
1562062369404671:10:-3:-21:-13:15:-1:1:2:-0.353516:-0.777344:0.493652:14.375:-1.375:-7.75
1562062369453676:-11:-8:3:-21:5:2:-7:-10:-0.32959:-0.859375:0.516113:13.1875:-4.875:-7.25
1562062369505682:-4:-3:-1:-13:4:-2:4:4:-0.3125:-0.779785:0.537109:30.6875:3.75:-7.5625
1562062369546686:-5:-5:0:-7:2:0:-1:0:-0.349609:-0.765137:0.521484:13.8125:1.875:-11.625
1562062369596691:-1:-2:-6:2:10:-3:-4:-3:-0.325684:-0.839355:0.526855:4.5:-8.0625:-10.3125
1562062369644695:3:3:0:-7:-4:-1:-2:1:-0.311523:-0.790039:0.525391:2.1875:-8:-7.1875
1562062369702701:0:0:-2:-2:-1:-1:-1:-2:-0.288086:-0.798828:0.560547:3.1875:-6.375:-3.5
1562062369753706:-1:0:0:0:-1:-3:-1:0:-0.285156:-0.796387:0.566895:1.125:-3.75:-1.8125
1562062369806712:-1:-1:-3:-6:-5:1:-1:-2:-0.288574:-0.794922:0.555664:1.75:0.125:-1.1875
1562062369860717:0:-4:-4:-1:1:0:-1:-2:-0.292969:-0.798828:0.547852:-0.75:1.3125:-0.9375
1562062369906722:0:0:2:2:1:0:1:-1:-0.299316:-0.794434:0.543457:0.4375:0.8125:0
1562062369956727:1:0:3:2:0:0:-1:-1:-0.29541:-0.791992:0.545898:-0.25:0.1875:-0.3125
1562062370007732:-2:-1:-2:-1:-5:-3:-2:-1:-0.294434:-0.793457:0.550781:0.1875:-1:-0.125
1562062370046736:0:-1:2:-1:1:0:1:1:-0.287598:-0.795898:0.554688:0:-1.5:-0.3125
1562062370106742:2:1:1:0:2:3:1:2:-0.288086:-0.793457:0.549316:-0.8125:-1.3125:-0.1875
1562062370159747:-2:-4:-4:1:-3:-4:-2:0:-0.289062:-0.794434:0.55957:0:-0.4375:0.125
1562062370207752:-4:-11:-24:-7:-4:-2:-3:-4:-0.295898:-0.794922:0.545898:0.0625:-0.75:-0.0625
1562062370266758:0:1:-3:-3:-2:-2:0:-2:-0.291016:-0.794434:0.551758:-0.625:-1.25:-0.75
1562062370316763:-1:-3:-1:1:-1:-5:-4:-1:-0.288086:-0.791504:0.550781:0.9375:-1.125:-0.9375
1562062370367768:1:0:-3:1:-5:-2:-1:-1:-0.285645:-0.794434:0.554688:0.625:-0.8125:-0.4375
1562062370406772:-2:2:3:4:0:-1:-1:1:-0.286133:-0.794922:0.553711:-0.3125:-0.5:-0.375
1562062370466778:-2:-1:-1:2:-1:1:-1:-1:-0.282227:-0.800293:0.550781:0.4375:0.125:0.125
1562062370507782:1:1:6:0:1:0:1:2:-0.285645:-0.79248:0.560059:-0.6875:0:0
1562062370567788:1:-1:1:2:1:0:-1:-1:-0.286621:-0.803223:0.547363:-0.9375:-0.0625:-0.25
1562062370615793:-2:-1:-2:-1:0:-1:0:0:-0.283203:-0.789551:0.555176:0.4375:0.0625:0.125
1562062370669798:0:1:0:-1:0:-2:-1:0:-0.291992:-0.797363:0.555176:0.0625:0:0.1875
1562062370706802:-1:-2:1:0:-2:0:-2:-1:-0.286621:-0.796875:0.549316:-0.25:0:-0.0625
1562062370766808:-1:0:-1:4:2:2:-1:-3:-0.286133:-0.796387:0.553711:0.25:-0.0625:-0.25
1562062370819813:0:2:-2:-3:-3:4:5:0:-0.288574:-0.802246:0.54541:-0.5:0.125:0.125
1562062370870818:-1:0:0:1:-3:0:0:0:-0.286133:-0.797852:0.549805:0.1875:0.1875:-0.125
1562062370908822:-3:-3:-6:-4:-2:-3:-2:-4:-0.290039:-0.791016:0.548828:-0.5:-0.1875:-0.4375
1562062370969828:0:1:1:-1:-1:-3:0:0:-0.284668:-0.793945:0.554688:0.0625:0.0625:-0.375
1562062371021833:-2:-1:-2:-1:-2:-2:-1:-2:-0.289062:-0.79834:0.550781:-0.1875:0.1875:0
1562062371065838:-2:-2:-2:-2:1:-1:0:-4:-0.289062:-0.796875:0.555664:-0.5:0:0.1875
1562062371125844:-1:-1:-2:4:1:1:-1:0:-0.285156:-0.793457:0.552734:0.0625:0.0625:0.125
1562062371169848:0:1:2:2:0:1:1:1:-0.287598:-0.796875:0.548828:-0.6875:0.125:0
1562062371225854:1:1:-2:0:-1:-1:0:0:-0.288086:-0.799805:0.553223:0.75:0.3125:0.125
1562062371269858:-2:0:4:3:-4:-3:0:1:-0.289062:-0.79541:0.552734:-0.375:0:0.1875
1562062371328864:-2:0:-9:-2:3:2:-2:0:-0.286621:-0.794434:0.554199:0.5:0.125:0.3125
1562062371369868:0:-1:3:-2:0:0:0:-1:-0.287109:-0.794922:0.553223:0.0625:-0.5625:0.25
1562062371429874:-4:-2:-1:0:-2:-1:-1:-2:-0.292969:-0.794922:0.545898:0.25:-0.1875:0.5625
1562062371478879:-3:-1:-5:-3:-1:0:1:-1:-0.286133:-0.794434:0.555176:1.25:0:0.3125
1562062371530884:1:0:0:2:1:0:-1:-1:-0.29541:-0.793457:0.550781:-0.0625:0.25:0.25
1562062371569888:0:1:3:2:-3:0:-1:0:-0.291504:-0.794434:0.558594:1.375:0.3125:0.0625
1562062371629894:-1:-1:5:0:-2:-1:-2:0:-0.286133:-0.797852:0.552246:0.75:-0.5:-0.3125
1562062371669898:0:-2:-3:4:-2:0:-1:0:-0.29834:-0.788086:0.557129:0.375:-0.4375:-0.125
1562062371729904:-1:1:0:-3:-2:-2:1:1:-0.292969:-0.789062:0.553711:0.5:-0.125:0.25
1562062371771908:0:-1:0:1:2:0:0:-2:-0.291992:-0.791992:0.557617:-0.0625:0.125:0.0625
1562062371831914:-1:-1:-2:0:3:0:-1:0:-0.291992:-0.791504:0.547852:0.1875:0.3125:-0.1875
1562062371884919:1:-1:5:4:1:1:1:0:-0.289062:-0.790527:0.542969:-0.0625:0.125:-0.1875
1562062371928924:0:-1:-1:-1:-1:0:-1:0:-0.289551:-0.789551:0.549805:0.25:-0.0625:-0.0625
1562062371982929:0:0:-1:-5:4:-3:0:1:-0.289062:-0.790039:0.55127:0.4375:-0.5:0.1875
1562062372032934:0:-1:0:-3:-3:2:-1:0:-0.29248:-0.791504:0.552246:0.125:-0.5:-0.0625
1562062372071938:-1:-1:0:1:-1:0:-1:-3:-0.290039:-0.791504:0.55127:0.3125:-0.3125:-0.1875
1562062372131944:-1:1:-1:-2:-1:0:2:0:-0.290039:-0.79248:0.554199:0.0625:-0.375:-0.1875
1562062372184949:0:-1:2:0:3:2:-2:0:-0.287598:-0.787598:0.555664:0.3125:-0.25:-0.25
1562062372228954:-1:0:0:3:2:-2:-2:-2:-0.287598:-0.793457:0.553711:-0.125:-0.5:0.125
1562062372280959:1:0:0:-1:0:1:0:0:-0.291992:-0.795898:0.552734:0.125:-0.0625:-0.1875
1562062372332964:1:3:2:-1:2:2:1:0:-0.284668:-0.789551:0.557617:0.8125:-0.0625:-0.4375
1562062372388970:0:-1:-1:-1:0:-1:2:-1:-0.29541:-0.788574:0.553711:-0.25:-0.375:0.1875
1562062372430974:-3:1:-3:2:-5:-4:-2:-1:-0.287109:-0.789551:0.555664:1.125:-0.25:0.25
1562062372491980:0:1:2:-1:-3:-1:0:0:-0.287109:-0.799805:0.555176:-0.125:-0.625:-0.1875
1562062372532984:1:1:2:1:4:0:1:1:-0.294434:-0.789551:0.556152:0.5:-0.4375:-0.3125
1562062372591990:0:1:1:0:3:1:1:2:-0.285645:-0.79248:0.553711:0.875:0:-0.125
1562062372641995:-1:0:1:0:2:-1:-2:0:-0.288086:-0.788574:0.568359:0:-0.5:-0.125
1562062372694000:1:0:-1:-4:0:-2:-1:0:-0.288086:-0.791504:0.557617:0.4375:-0.125:-0.125
1562062372731004:-1:-2:-2:-2:2:1:1:1:-0.285156:-0.790039:0.561035:0.1875:-0.125:-0.25
1562062372792010:0:0:1:0:-3:-1:-1:-3:-0.288086:-0.792969:0.556641:0.125:-0.375:-0.3125
1562062372844015:-1:-2:2:1:0:-3:-1:0:-0.289062:-0.79541:0.559082:0.125:-0.4375:-0.0625
1562062372894020:1:0:-1:0:1:-1:-1:0:-0.285645:-0.793457:0.560547:-0.1875:-0.4375:-0.125
1562062372934024:-1:-6:-3:-1:-5:-3:-1:-1:-0.285156:-0.79248:0.548828:0.3125:-0.25:-0.125
1562062372995030:1:-1:1:2:-1:1:0:1:-0.283691:-0.79248:0.560059:0.25:0:-0.0625
1562062373031034:-1:0:-3:-2:-2:-2:0:-2:-0.289551:-0.789551:0.555664:0.375:-0.0625:0
1562062373091040:-2:0:0:-1:2:0:0:0:-0.286133:-0.79248:0.557617:0.25:-0.3125:-0.0625
1562062373145045:-1:-1:-2:-3:0:1:0:-2:-0.287598:-0.791504:0.554199:0.375:-0.1875:0
1562062373196051:-1:0:1:1:1:-2:0:1:-0.28125:-0.794434:0.55957:0.1875:0:-0.3125
1562062373234054:0:-1:-1:0:-1:-2:-1:-1:-0.291016:-0.780762:0.564941:0.125:0.125:-0.0625
1562062373294060:0:0:-2:-1:3:0:0:1:-0.288574:-0.791016:0.556152:0.6875:-0.0625:0.1875
1562062373347066:-1:1:-1:-1:-2:2:-1:0:-0.283691:-0.791992:0.549805:-0.3125:-0.4375:-0.1875
1562062373395070:0:0:-1:-3:-1:0:0:-2:-0.291992:-0.785645:0.563477:0.5625:-0.5:-0.0625
1562062373444075:0:-1:-2:-1:1:-1:1:0:-0.288574:-0.794922:0.554688:-0.5625:-0.375:-0.0625
1562062373497081:-1:-2:-8:-1:0:-1:1:-1:-0.288574:-0.789062:0.5625:-0.1875:-0.6875:-0.5625
1562062373550086:-1:-2:0:0:1:-1:-2:-2:-0.286133:-0.794922:0.562012:-0.0625:-0.625:-0.25
1562062373594090:2:-1:1:-1:-2:0:1:1:-0.280273:-0.782715:0.560059:0:-0.625:-0.3125
1562062373648096:0:-1:-1:-2:-2:-2:-1:0:-0.285156:-0.786621:0.554199:0.375:-0.1875:-0.25
1562062373698101:1:1:0:0:-1:-2:1:-1:-0.28418:-0.787109:0.5625:-0.625:-0.4375:-0.1875
1562062373753106:-2:0:1:0:1:0:-1:2:-0.28125:-0.791504:0.561523:0.0625:-0.125:0.25
1562062373796111:-2:-3:-4:-4:-2:0:-1:-2:-0.285156:-0.790527:0.559082:-0.375:-0.3125:0
1562062373850116:2:3:3:0:0:0:-1:1:-0.283203:-0.790527:0.562988:0.0625:0:-0.125
1562062373894120:-1:0:-3:-3:1:-3:0:-2:-0.285645:-0.787598:0.560059:-0.0625:-0.0625:-0.1875
1562062373954126:-2:0:-2:0:0:-1:-3:-2:-0.286621:-0.791504:0.560059:0.125:0.0625:-0.0625
1562062373997131:0:-2:-1:-2:-2:-2:0:-1:-0.283691:-0.788086:0.555176:0.1875:-0.0625:0.0625
1562062374053136:-2:-1:3:-1:-1:3:-2:-1:-0.289551:-0.791504:0.559082:0.125:-0.125:0.125
1562062374096141:0:-1:0:-1:4:-1:0:0:-0.28125:-0.79541:0.559082:-0.125:0.1875:-0.375
1562062374150146:-2:-1:-3:-2:-5:-3:-3:-2:-0.286133:-0.788574:0.564453:-0.6875:-0.4375:-0.125
1562062374197151:0:1:-3:0:1:0:1:1:-0.289551:-0.790039:0.559082:0.1875:0.0625:0.25
1562062374257157:0:-1:-2:-4:-4:-2:-2:1:-0.279785:-0.796875:0.556641:-0.25:-0.3125:-0.1875
1562062374306162:-1:-1:-3:-1:-2:-3:-3:-2:-0.286133:-0.790527:0.563477:0.625:-0.125:-0.1875
1562062374357167:-1:-3:-7:-1:0:-1:0:-2:-0.287598:-0.791992:0.560059:0.3125:0.1875:0
1562062374396171:-2:0:-3:-4:-2:-2:-1:-1:-0.286621:-0.788574:0.55957:0:-0.125:-0.0625
1562062374456177:1:1:1:0:-1:2:3:0:-0.28418:-0.793945:0.55957:0:0:-0.0625
1562062374497181:0:0:2:1:3:3:0:1:-0.280762:-0.791504:0.561035:0.5:0.125:0.125
1562062374557187:0:-3:-3:-2:0:-1:-2:-1:-0.285645:-0.794922:0.552246:0:-0.0625:0
1562062374599191:0:-1:0:0:0:1:2:2:-0.286133:-0.789062:0.556641:-0.0625:0.0625:0
1562062374659197:-2:1:-1:-1:0:-1:-3:-2:-0.287109:-0.788086:0.558594:0:-0.125:0.0625
1562062374702201:2:10:-3:-2:11:2:0:0:-0.290039:-0.79248:0.557129:-0.6875:0.0625:0.3125
1562062374757207:2:-24:0:2:-3:-2:-3:-7:-0.29248:-0.803711:0.558105:-6.6875:0.9375:4.25
1562062374813212:-7:-30:10:-7:0:-4:-6:-14:-0.264648:-0.830566:0.555664:-16.625:7.25:5.1875
1562062374857217:-8:-48:-71:-7:4:-6:-11:-35:-0.279785:-0.82666:0.553711:-9.0625:6.625:7.1875
1562062374899221:-24:-57:14:1:-2:1:-4:-43:-0.290527:-0.810547:0.539551:-17.375:10.125:8.9375
1562062374958227:-8:-44:14:7:-24:1:6:40:-0.32373:-0.819824:0.488281:-6.6875:1.9375:8.125
1562062374997231:11:127:12:-8:-7:-2:-1:-36:-0.340332:-0.788086:0.489258:-0.9375:-3.25:9.9375
1562062375056237:-54:-58:44:25:-24:-9:1:22:-0.318359:-0.804688:0.524414:-2.875:-3.625:8.4375
1562062375112242:3:36:-4:6:-21:4:1:-12:-0.333984:-0.786133:0.509277:1.8125:-3.0625:4.375
1562062375157247:29:20:17:-9:-6:0:-16:18:-0.330078:-0.794922:0.509766:1.75:-2.8125:0.9375
1562062375199251:19:-26:-12:-16:20:4:20:7:-0.337891:-0.807129:0.51416:10.6875:-1.25:-1.125
1562062375259257:6:9:3:-10:10:2:-1:0:-0.325684:-0.791992:0.558105:18.6875:-1.1875:-1.5625
1562062375312262:1:2:7:49:11:5:6:5:-0.312988:-0.79248:0.55127:10.0625:2.75:-7.875
1562062375363267:1:2:2:18:1:-2:-1:-2:-0.349121:-0.765137:0.552246:24.25:1.8125:-11.6875
1562062375418273:-2:-2:-3:-5:-6:-4:-2:-2:-0.333496:-0.803223:0.533203:-4.0625:-9.1875:-10.125
1562062375462277:-1:-1:-2:9:1:-1:0:0:-0.311035:-0.803711:0.54541:1.8125:-10.25:-6.8125
1562062375513282:0:-1:0:-2:-5:-3:-1:1:-0.287109:-0.791016:0.567871:-1.75:-9.4375:-4.125
1562062375558287:-2:0:-2:-4:3:3:-1:-1:-0.263672:-0.790039:0.585449:2.375:-4.125:-2.0625
1562062375619293:-1:0:-3:-2:0:-1:0:1:-0.271973:-0.781738:0.583496:-0.0625:-0.75:-1.8125
1562062375660297:0:-2:-4:-4:-1:0:-1:-1:-0.286621:-0.793457:0.564941:0:2.9375:-0.9375
1562062375719303:1:-1:1:-1:-1:3:1:0:-0.289062:-0.789062:0.562012:1.1875:2.5:-0.8125
1562062375761307:-1:0:0:-2:-1:-1:-1:-1:-0.288086:-0.791992:0.562012:-0.25:0.3125:-0.875
1562062375813312:-1:0:-1:0:0:-1:-1:-1:-0.286621:-0.788574:0.562012:-0.125:-0.875:-0.625
1562062375859317:0:2:3:-2:-2:0:0:0:-0.282715:-0.781738:0.564453:0:-1.375:-0.0625
1562062375919323:1:1:4:-2:-2:-1:2:0:-0.271973:-0.788574:0.567871:0.75:-0.25:-0.5
1562062375959327:-2:-1:2:-4:-4:1:1:0:-0.288574:-0.783691:0.563477:-0.9375:-0.125:-0.4375
1562062376020333:-2:-1:3:1:-1:-2:-1:-2:-0.285645:-0.791992:0.564453:0.0625:0.3125:-0.125
1562062376062337:-1:1:-1:1:0:0:-1:0:-0.276367:-0.78418:0.563477:-0.4375:-0.125:-0.1875
1562062376122343:0:3:1:-1:-5:0:0:0:-0.28125:-0.789062:0.563965:0.625:-0.4375:0
1562062376174348:0:-1:1:3:2:1:0:-1:-0.280273:-0.791504:0.562012:0.125:-0.5:-0.1875
1562062376219353:0:2:0:-2:1:-1:1:0:-0.282715:-0.78418:0.568359:-0.5625:-0.25:-0.25
1562062376274358:0:-2:-3:0:1:-1:-1:-1:-0.282715:-0.796387:0.566895:0:-0.0625:0.125
1562062376324363:-2:-3:-5:-1:0:-1:1:-1:-0.280273:-0.78418:0.568359:0.8125:0.125:-0.0625
1562062376376369:0:-1:-1:0:-3:2:0:0:-0.283691:-0.789062:0.56543:-0.0625:-0.125:0
1562062376421373:-2:-3:-9:-5:-4:-1:-2:-1:-0.280762:-0.786133:0.566406:0.3125:-0.1875:-0.125
1562062376473378:0:0:1:-1:2:1:-1:0:-0.27832:-0.788086:0.560547:-0.1875:-0.6875:-0.125
1562062376522383:0:-2:-3:-2:-1:1:-3:-1:-0.28125:-0.789062:0.570801:-0.25:-0.75:-0.3125
1562062376563387:-1:-1:0:3:1:-2:-3:-3:-0.280273:-0.784668:0.564941:-0.0625:-0.75:-0.4375
1562062376624393:-2:0:-2:0:0:0:1:1:-0.278809:-0.790039:0.566895:-0.4375:-1.0625:-0.375
1562062376676399:0:-1:-3:-1:0:-2:-1:1:-0.278809:-0.791016:0.564941:0.0625:-0.8125:-0.1875
1562062376721403:1:0:-3:-2:0:-1:1:0:-0.276367:-0.785156:0.56543:-0.5:-0.875:-0.3125
1562062376774408:-1:0:-4:-2:-1:-1:-1:-1:-0.273926:-0.796387:0.561523:-0.1875:-0.5:-0.5
1562062376822413:-1:-1:2:-2:-3:-2:-2:0:-0.280273:-0.780762:0.571777:-0.9375:-0.375:-0.6875
1562062376864417:-2:-2:-3:2:0:-2:-1:-2:-0.285156:-0.788086:0.566406:-0.6875:-0.5625:0.1875
1562062376924423:-1:-1:2:1:-1:-1:-1:0:-0.271973:-0.787109:0.563965:-0.125:-0.25:0.0625
1562062376976429:-2:-1:-3:0:3:0:1:0:-0.274414:-0.790527:0.56543:-0.125:-0.5625:-0.0625
1562062377021433:-2:-2:1:1:-1:-3:-3:-2:-0.278809:-0.796875:0.561035:-0.5:-0.3125:-0.3125
1562062377074438:0:2:6:2:0:-1:0:1:-0.274414:-0.786133:0.572754:0:-0.0625:-0.0625
1562062377122443:-1:-1:-3:-2:-3:-3:-1:-1:-0.280273:-0.791992:0.562988:-0.5:0:0.0625
1562062377179449:-2:-2:-3:0:-1:-2:-1:-1:-0.272461:-0.787598:0.562988:-0.25:0.25:0.0625
1562062377223453:1:-1:0:2:-4:2:0:1:-0.267578:-0.787109:0.559082:-0.375:0.0625:-0.0625
1562062377277459:2:1:0:-1:2:0:1:0:-0.274414:-0.789551:0.562988:-0.0625:0.25:0.25
1562062377323463:-2:-1:-4:-2:2:-1:0:-2:-0.275879:-0.788574:0.566406:-0.4375:0.3125:0.0625
1562062377374468:-2:-2:0:1:0:-1:0:-1:-0.277344:-0.791016:0.571289:-0.125:0.1875:0.25
1562062377427474:-1:-1:0:0:1:-2:-1:-3:-0.27832:-0.787109:0.565918:-0.0625:0.1875:0.1875
1562062377479479:-3:-3:-5:0:1:-1:-2:0:-0.277832:-0.788086:0.567383:-0.4375:0.0625:0
1562062377524483:0:1:0:2:5:0:0:1:-0.282227:-0.785645:0.568848:-0.25:-0.0625:0.1875
1562062377583489:-2:1:2:1:-1:-1:1:0:-0.282227:-0.786621:0.566895:0.3125:-0.6875:0.625
1562062377625493:1:-1:-1:-3:-1:-2:2:0:-0.277344:-0.785645:0.560547:0.8125:-0.6875:-0.3125
1562062377684499:0:1:0:1:1:-1:-2:0:-0.280273:-0.791504:0.570312:-0.875:-1.5625:-0.1875
1562062377727504:-3:-2:-4:-2:0:-1:0:-1:-0.276855:-0.789551:0.561523:0:-1.9375:-0.125
1562062377787510:-1:-1:0:-3:2:2:0:0:-0.269043:-0.793945:0.560059:-0.625:-1.3125:0.0625
1562062377823513:-1:-1:-2:-5:-1:-1:-2:-2:-0.277344:-0.787598:0.570801:-0.0625:-0.875:0.125
1562062377883519:0:-2:2:0:0:-1:0:0:-0.278809:-0.791016:0.5625:-0.25:-0.4375:0
1562062377937525:-2:0:0:0:0:2:1:0:-0.277344:-0.790039:0.564941:-0.25:-0.25:-0.375
1562062377984529:-2:-1:0:2:-2:-3:-3:-3:-0.273926:-0.793457:0.566895:-0.8125:-0.375:-0.375
1562062378029534:-1:0:-6:-6:-2:-4:-3:-3:-0.269531:-0.791504:0.558594:-0.375:-0.3125:-0.625
1562062378086540:-2:-2:-2:1:0:0:0:-1:-0.271484:-0.791016:0.559082:0.625:-0.0625:-0.25
1562062378123543:1:-1:2:1:0:0:-3:-2:-0.274902:-0.787109:0.565918:0.3125:-0.25:0.0625
1562062378183549:-1:2:5:1:2:2:2:1:-0.274414:-0.789062:0.564453:0.5:-0.375:0.1875
1562062378236555:0:-3:-2:-1:0:1:1:0:-0.273926:-0.788574:0.5625:0.25:0.25:0.0625
1562062378289560:2:1:6:5:5:1:-2:0:-0.274414:-0.787109:0.563477:0.75:0.5625:0.0625
1562062378341565:-2:-2:-5:-2:1:0:1:-1:-0.27832:-0.788574:0.571777:0.3125:0.4375:0.125
1562062378387570:-2:-1:1:-2:-4:-3:-2:-1:-0.273926:-0.796387:0.562012:0.125:0.125:0.1875
1562062378439575:-1:-1:1:0:-1:1:-1:0:-0.270996:-0.790527:0.572266:-0.125:-0.125:-0.5625
1562062378487580:-1:-1:-2:-5:-2:-1:0:1:-0.273926:-0.791992:0.566406:0:-0.25:0.25
1562062378530584:0:-1:-2:1:-1:0:1:0:-0.271484:-0.795898:0.567383:0.4375:0.25:0.3125
1562062378590590:-1:-2:-2:-1:-3:-4:-1:-1:-0.280762:-0.786621:0.572754:1:0:0.3125
1562062378641595:-2:-2:-2:0:3:1:-1:0:-0.27832:-0.789551:0.568359:-0.5:0.1875:0.3125
1562062378686600:-1:0:2:-1:-1:-1:0:-3:-0.275391:-0.788574:0.568359:0.4375:0.1875:0.1875
1562062378739605:-1:-2:-1:-2:-2:-2:0:-1:-0.276367:-0.784668:0.559082:-0.75:0.125:0.125
1562062378787610:0:1:-3:-1:-2:-2:0:-1:-0.270996:-0.785645:0.566895:0.3125:0.375:-0.0625
1562062378844615:-3:-4:-6:-3:-1:1:-2:-1:-0.275879:-0.791504:0.569824:0.5:0.1875:-0.1875
1562062378890620:-2:-1:-3:1:0:-1:-1:-2:-0.274902:-0.791016:0.562988:-0.3125:0.25:0.3125
1562062378941625:-1:-1:-1:1:1:-1:0:-2:-0.275879:-0.786133:0.563965:0.25:0.25:0.1875
1562062378986630:1:-2:-1:0:-1:0:0:0:-0.278809:-0.789551:0.563965:-0.125:0.125:-0.125
1562062379046636:0:0:0:-1:-1:-4:-3:0:-0.275879:-0.785156:0.571777:0.5625:-0.1875:-0.25
1562062379098641:-2:-1:-1:0:-1:0:-2:-1:-0.279785:-0.791504:0.569336:0.4375:-0.375:0.1875
1562062379144645:-2:-2:1:-1:-1:-1:-2:-2:-0.275391:-0.790527:0.566406:-0.5:0.0625:-0.1875
1562062379189650:1:2:0:0:-1:0:-1:-1:-0.283203:-0.780273:0.567871:0:-0.0625:-0.1875
1562062379249656:-2:-1:-1:0:2:1:0:1:-0.284668:-0.79541:0.56543:-0.4375:-0.375:-0.125
1562062379301661:-1:1:1:2:-1:-3:0:-2:-0.274902:-0.783691:0.566895:-0.625:-0.625:-0.3125
1562062379349666:-2:-3:-12:-4:-2:-3:-1:-2:-0.279297:-0.785645:0.566895:0.3125:-0.4375:-0.375
1562062379391670:1:0:3:0:2:1:0:0:-0.275391:-0.792969:0.573242:-0.75:-0.25:-0.25
1562062379452676:-1:2:3:-1:-2:1:2:1:-0.274414:-0.783203:0.569824:0.8125:-0.0625:-0.375
1562062379503681:0:1:4:-1:2:1:-2:0:-0.27832:-0.791992:0.570312:-0.625:-0.375:-0.25
1562062379549686:0:3:-1:-1:-4:-3:-1:0:-0.272949:-0.788574:0.563477:-0.25:-0.1875:-0.3125
1562062379601691:-1:-2:-4:-4:-3:1:1:-2:-0.275391:-0.79248:0.564453:0.125:-0.1875:-0.125
1562062379649696:-2:16:1:-3:-13:-6:-1:-2:-0.280273:-0.782715:0.568359:-1.375:-0.375:-0.125
1562062379692700:-4:6:5:-2:-20:3:2:0:-0.287109:-0.788574:0.55957:-12.0625:1.6875:5.125
1562062379751706:-5:-50:-11:-8:9:-6:11:30:-0.303223:-0.810059:0.511719:-28.25:2.8125:9.4375
1562062379803711:-35:-43:-20:-66:60:36:-37:-101:-0.230469:-0.867188:0.690918:-14.9375:12.3125:10.625
1562062379848716:61:114:127:36:-77:-9:-3:-41:-0.268066:-0.808594:0.46582:-37.6875:3.3125:-7.625
1562062379901721:-23:52:-53:4:27:-13:2:23:-0.302734:-0.78418:0.516602:3.1875:8.25:1.8125
1562062379949726:-31:27:-9:-15:14:-4:-4:-40:-0.285645:-0.837402:0.503906:-8.5:-1:-6.6875
1562062379992730:11:14:-35:-20:-18:-7:-3:15:-0.307617:-0.828125:0.499023:4.8125:1.5:-8.1875
1562062380051736:-18:17:2:17:7:4:33:-5:-0.306641:-0.785156:0.499512:3:-2.6875:-5.5
1562062380103741:-4:-3:-11:-38:-30:-5:-3:1:-0.287109:-0.897461:0.540039:10.125:-6.875:-2.125
1562062380148746:10:-1:-5:-26:-3:-4:-5:-2:-0.248535:-0.779297:0.547363:23.125:-1.25:-4.875
1562062380194750:-2:-3:-1:32:-5:-3:-1:1:-0.308105:-0.780762:0.528809:10.875:0.125:-7.75
1562062380255756:0:-1:-3:-69:-16:2:1:1:-0.305664:-0.828613:0.536133:5.4375:-6.9375:-6.875
1562062380306762:-2:-2:2:36:3:-1:-1:-1:-0.27002:-0.791016:0.535645:5.9375:-9.5625:-5.1875
1562062380352766:0:-1:-3:-1:-2:-2:3:6:-0.248535:-0.791016:0.579102:6.625:-6.9375:-2.125
1562062380403771:1:2:-1:2:5:1:1:3:-0.241699:-0.791992:0.585938:1.125:-3.6875:-0.9375
1562062380451776:-1:-2:-1:-3:-3:-1:1:0:-0.259766:-0.789551:0.571777:-0.375:0.5:0
1562062380509782:-1:-1:2:1:-4:-3:1:-1:-0.266602:-0.794434:0.562988:-1.625:0.625:1.0625
1562062380554786:-4:-2:-4:-1:-2:-1:-1:-1:-0.265137:-0.789062:0.5625:1.125:0.375:1.125
1562062380606792:0:-1:-1:-5:2:1:2:1:-0.26416:-0.789551:0.560059:0.6875:-0.5:0.5
1562062380652796:0:-2:-1:3:-4:-1:1:0:-0.262695:-0.795898:0.5625:-0.875:-2:0.25
1562062380711802:-1:0:2:-1:-5:-2:0:0:-0.262695:-0.795898:0.569336:0.1875:-1.75:0.375
1562062380752806:-1:-1:0:-2:-2:1:-1:0:-0.259766:-0.789551:0.576172:-0.625:-2:0.5
1562062380811812:0:1:0:0:3:0:-1:-1:-0.260254:-0.797363:0.566895:-0.4375:-1.3125:0.875
1562062380855816:-1:-1:-4:3:-1:-1:-3:0:-0.256348:-0.799316:0.567383:-1.375:-1.0625:0.5625
1562062380915822:-2:-1:-1:-2:1:-1:1:0:-0.256348:-0.787109:0.567871:0.6875:-0.375:0.1875
1562062380951826:0:-1:0:2:1:0:0:1:-0.26709:-0.793945:0.5625:-0.8125:-0.5625:-0.125
1562062381012832:-1:-2:0:-2:-1:1:0:-1:-0.257812:-0.79541:0.560547:0.9375:-0.5:0.375
1562062381063837:0:0:4:-2:0:0:-1:0:-0.258301:-0.79248:0.571777:0.125:-0.25:0
1562062381108842:0:1:3:3:1:1:1:-1:-0.269531:-0.79248:0.57373:-0.625:-0.125:-0.125
1562062381157847:-1:0:-4:1:-3:0:-2:-2:-0.260742:-0.79248:0.568848:1.25:-0.0625:0.0625
1562062381216853:0:2:3:-2:-6:-2:-1:0:-0.262207:-0.793945:0.564941:-0.6875:-0.3125:-0.125
1562062381266858:-1:0:0:0:1:-4:-2:-1:-0.257812:-0.788086:0.563965:0.375:-0.125:-0.1875
1562062381318863:0:0:-1:0:-4:-1:-2:-1:-0.26123:-0.788086:0.570312:-0.6875:-0.0625:-0.25
1562062381359867:0:1:2:-2:5:2:0:-2:-0.262695:-0.79541:0.569336:0:0.0625:-0.0625
1562062381408872:-1:1:1:1:-4:-2:0:-1:-0.262695:-0.791016:0.566406:0:-0.125:0.125
1562062381456877:0:-2:1:0:1:1:0:2:-0.263184:-0.794434:0.569336:0.4375:-0.125:0.3125
1562062381516883:-1:0:-2:0:-1:-2:-2:-2:-0.266113:-0.787598:0.565918:-0.5625:-0.3125:-0.125
1562062381566888:-2:0:1:6:-2:0:-2:-1:-0.263184:-0.787109:0.568848:-0.375:0.125:0.0625
1562062381619893:0:-3:-3:-3:-2:1:3:1:-0.263672:-0.790527:0.570801:-0.1875:0:-0.125
1562062381659897:-2:-4:-4:0:1:2:-2:0:-0.262207:-0.794434:0.56543:0:0.125:0.125
1562062381708902:-2:-2:1:0:-2:-3:-1:-1:-0.263672:-0.786133:0.568359:-0.1875:-0.0625:0.125
1562062381769908:1:2:-2:-3:2:0:-1:-1:-0.259766:-0.793945:0.566895:-0.0625:0.125:-0.3125
1562062381817913:0:-1:-2:0:-3:-1:0:2:-0.270508:-0.786133:0.568359:-0.5:-0.3125:-0.25
1562062381865917:-1:0:-1:7:-3:1:-1:-1:-0.26416:-0.797363:0.565918:-0.125:-0.5:0
1562062381911922:-1:0:1:-1:3:1:1:0:-0.256348:-0.793457:0.568359:-0.5:-0.625:-0.4375
1562062381959927:-2:-4:-2:-1:-1:-1:-1:-1:-0.265625:-0.790039:0.577148:0.375:-0.3125:-0.0625
1562062382008932:0:1:-2:-1:-4:-2:-3:-2:-0.268066:-0.794922:0.56543:-0.6875:-0.375:-0.125
1562062382068938:-2:-1:0:1:2:-2:-1:-1:-0.265137:-0.784668:0.567871:-0.3125:-0.0625:-0.25
1562062382116943:-1:-2:0:-4:-2:0:0:0:-0.263184:-0.791504:0.572754:0.4375:-0.0625:-0.25
1562062382162947:1:-1:2:-5:1:0:0:0:-0.264648:-0.788574:0.566406:0.0625:-0.25:-0.25
