1562065220643152:-21:-4:3:0:19:-5:-10:-28:-0.236816:-0.833496:0.503418:3.9375:1.9375:4
1562065220689156:0:1:0:3:25:-2:-11:-32:-0.235352:-0.858887:0.505859:2.875:2.75:1.75
1562065220734161:-15:1:1:-1:-26:-2:-2:1:-0.234375:-0.829102:0.499512:-1.5:-0.5625:-0.25
1562065220787166:2:2:-2:-3:0:-2:-5:1:-0.224609:-0.833496:0.496582:-20:-5.9375:-1.625
1562065220835171:-4:-1:-8:-23:13:-8:-3:-1:-0.231445:-0.850586:0.500977:-18.4375:-3.8125:-5.5625
1562065220892176:3:0:-1:7:-12:-1:0:0:-0.219727:-0.852051:0.476562:-28.9375:-3.1875:-9.0625
1562065220937181:-1:-1:-6:-7:-14:3:-3:0:-0.213867:-0.900391:0.45752:-9:4.1875:-1.25
1562065220988186:-1:0:3:-1:10:-1:-2:-2:-0.227539:-0.880859:0.458008:-7.875:5.5:0.4375
1562065221033191:-2:-3:-3:-5:-32:-4:-1:-2:-0.227051:-0.891113:0.447266:-8.8125:11.75:5.875
1562065221094197:-1:-1:-1:-10:-19:-3:-2:-1:-0.226562:-0.875977:0.432617:-11.375:12.5625:7.5625
1562065221134201:-4:0:-6:-6:6:-3:-1:0:-0.254395:-0.893555:0.426758:-5.6875:12.625:10.9375
1562065221194207:-1:-1:1:9:8:-5:-2:1:-0.257812:-0.880371:0.41748:-8.5625:11.4375:11.5625
1562065221238211:1:2:5:11:17:6:-1:-1:-0.281738:-0.879395:0.403809:-9.625:14.625:13.375
1562065221289216:1:1:-1:-10:12:8:1:3:-0.291992:-0.883301:0.404785:-16.5625:15.3125:15.375
1562065221333221:-1:-2:-2:-14:-7:-2:0:-2:-0.317871:-0.897949:0.362305:-18.3125:13.25:15.3125
1562065221394227:-3:-1:-1:10:23:-3:-4:-2:-0.331055:-0.903809:0.350586:-8.5:11.625:13.5
1562065221446232:-2:-2:-1:19:6:-3:-2:-1:-0.356934:-0.881348:0.344727:-2.25:7.375:9.3125
1562065221494237:0:-1:2:1:13:-5:-3:-1:-0.35498:-0.87793:0.346191:-0.5625:5:6.3125
1562065221536241:1:-2:-1:-2:6:2:3:1:-0.357422:-0.887207:0.341797:-3.8125:2.3125:3.125
1562065221596247:-1:0:-2:-10:1:1:0:-1:-0.357422:-0.884277:0.331055:-2.75:0.125:1.3125
1562065221649252:-1:1:2:-7:2:-3:1:0:-0.355469:-0.887207:0.335938:-2.8125:-0.375:0.5625
1562065221694257:-1:-1:2:-1:8:1:3:1:-0.354492:-0.893555:0.338867:-3.875:-0.8125:1.0625
1562065221746262:0:1:-3:-4:-31:-2:1:-2:-0.352051:-0.891602:0.337402:-2.5625:0:2.4375
1562065221799267:0:-1:-4:7:8:-2:-1:-1:-0.359863:-0.898438:0.333984:-2.0625:-0.75:4.3125
1562065221851272:-1:-3:0:3:6:2:-1:0:-0.362305:-0.894043:0.338867:1.9375:0.75:4.6875
1562065221897277:1:-2:-7:-23:-4:-1:1:0:-0.370117:-0.877441:0.344238:-0.5:1.625:4.8125
1562065221949282:1:-1:-3:-5:-4:-1:2:2:-0.372559:-0.879883:0.338867:-1.125:3.125:3.8125
1562065221997287:-1:2:1:1:-3:0:0:-1:-0.379883:-0.880371:0.337402:-2.75:4.75:3.25
1562065222054293:1:1:4:4:-6:-8:-1:-2:-0.381348:-0.885742:0.330566:-5.8125:5.3125:2
1562065222099297:-2:-1:-3:8:1:-1:0:-2:-0.373535:-0.887207:0.32666:-4.6875:6.4375:2.75
1562065222152302:0:0:0:-11:1:2:0:0:-0.390625:-0.874023:0.32373:-9:8.4375:3.5625
1562065222197307:-2:-3:-3:6:1:-3:-1:0:-0.386719:-0.887695:0.305176:-8.8125:9.6875:4.5625
1562065222249312:1:1:1:3:1:-2:1:1:-0.389648:-0.897949:0.291992:-7.625:11.1875:4.8125
1562065222296317:-2:-3:-3:-8:5:-5:-4:-1:-0.405273:-0.884766:0.277832:-7.75:11.25:5.3125
1562065222355323:0:1:2:-3:6:4:3:-2:-0.417969:-0.893555:0.272949:-5.625:10.9375:5.4375
1562065222399327:1:1:0:-5:-4:2:-2:1:-0.425293:-0.888672:0.257812:-4.1875:9.125:4.875
1562065222452332:-1:-1:-2:1:7:0:0:-3:-0.433594:-0.88623:0.258301:-0.9375:7.375:3.875
1562065222496337:0:-1:-3:-5:-16:-3:-3:-1:-0.436523:-0.87793:0.254395:0.3125:4.875:2.25
1562065222556343:-1:-3:-1:-14:-27:0:-4:-1:-0.4375:-0.880371:0.260254:0.125:3.375:1.3125
1562065222601347:-1:-2:-6:-5:1:2:0:-1:-0.440918:-0.878418:0.259277:0.3125:1.25:0.625
1562065222654353:-2:0:1:-13:13:3:0:1:-0.437988:-0.881348:0.257812:1.1875:0.75:0.25
1562065222700357:-1:2:0:6:0:-5:-3:-2:-0.435059:-0.873535:0.264648:-0.1875:1.25:-0.0625
1562065222759363:-2:-3:-4:12:11:1:-2:-2:-0.437012:-0.880371:0.258789:-2.125:0.875:0.0625
1562065222812368:0:0:0:-6:3:0:0:-1:-0.438477:-0.885742:0.258301:-2.0625:1.625:0.0625
1562065222859373:0:-1:3:-4:1:-6:-2:0:-0.437012:-0.884766:0.260742:-0.6875:1.6875:1.0625
1562065222901377:-1:-1:-1:3:1:0:-1:-1:-0.435547:-0.885254:0.256836:-1.3125:3.125:1.4375
1562065222961383:-2:-2:-7:-5:0:1:-1:-2:-0.444824:-0.879395:0.250488:-3.1875:2.375:2
1562065222999387:-1:0:2:26:1:-4:-1:0:-0.442383:-0.879395:0.253906:-0.625:2.4375:1.375
1562065223059393:-2:-1:-1:-2:8:-5:-1:-1:-0.446289:-0.883789:0.238281:-0.4375:2.0625:0.875
1562065223111398:-1:0:1:-5:-17:3:3:0:-0.445801:-0.883789:0.248047:0.125:2.375:1.25
1562065223159403:-1:-2:-4:-7:-4:1:-3:0:-0.454102:-0.883789:0.246582:-0.875:1.125:1.375
1562065223202407:-3:-2:-1:5:-19:-7:-1:-2:-0.450684:-0.87793:0.254395:-0.0625:1.4375:2
1562065223262413:-1:-2:3:-2:-1:-6:-4:-3:-0.45459:-0.879395:0.244629:-0.6875:1.6875:2.125
1562065223313419:-2:-4:-5:5:15:-1:0:0:-0.449707:-0.879395:0.242676:-1.1875:2.0625:1.9375
1562065223359423:-1:0:0:-4:-10:-6:-2:-2:-0.455566:-0.875977:0.237305:-0.875:2.8125:1.75
1562065223411428:-4:-1:-5:-2:6:0:0:-1:-0.460449:-0.874023:0.237305:-2:2.5:1.0625
1562065223459433:-1:-1:-6:-7:-11:0:-2:-1:-0.458008:-0.877441:0.233887:-0.375:1.3125:0
1562065223515439:0:0:-3:-6:-9:-3:-4:-1:-0.457031:-0.87793:0.232422:-0.1875:1:0.125
1562065223562443:0:-2:-5:-4:-6:0:0:0:-0.458984:-0.879395:0.23291:0.6875:0:-0.25
1562065223613449:1:1:-2:-7:-9:-4:-2:1:-0.464844:-0.871094:0.236816:0.8125:-0.125:-0.6875
1562065223660453:-2:-2:0:-4:7:3:-1:1:-0.464355:-0.873535:0.247559:-0.1875:-0.875:-0.3125
1562065223720459:1:0:3:10:0:0:0:-1:-0.454102:-0.879395:0.236816:0.8125:-0.125:-0.125
1562065223764464:-1:-2:-2:9:-9:-5:-3:-1:-0.457031:-0.879883:0.237793:0.125:0.875:0.1875
1562065223816469:-1:-2:-6:-8:4:5:1:-1:-0.461426:-0.879883:0.240234:0.5625:0.5625:0.5
1562065223864474:-1:0:-1:0:-3:2:-2:-3:-0.458008:-0.880371:0.235352:-0.5:0.4375:0.25
1562065223914479:-1:-1:-5:-7:-8:-1:1:-1:-0.456543:-0.877441:0.240723:0.4375:0.3125:0.4375
1562065223970484:1:1:1:-4:-10:2:0:0:-0.465332:-0.875488:0.233398:0:0.4375:0.25
1562065224019489:-1:-1:0:-5:1:-1:-1:0:-0.460938:-0.876953:0.240723:-0.4375:0.875:0.3125
1562065224066494:-1:0:-2:6:-25:-3:-1:1:-0.463379:-0.873535:0.242188:-0.5625:1.375:0.875
1562065224117499:0:-1:0:-2:-14:-3:-2:-1:-0.465332:-0.876953:0.237793:0.125:1.5625:0.875
1562065224164504:-1:-1:-3:-4:-1:0:0:0:-0.464355:-0.878906:0.236328:-0.75:1.25:0.5625
1562065224213509:-2:-2:-1:-1:-2:0:1:-2:-0.464355:-0.87207:0.231445:-0.125:0.5625:-0.5
1562065224273515:-1:0:1:-4:0:-3:-2:-2:-0.463867:-0.871582:0.23291:-0.1875:-0.25:-0.9375
1562065224319519:-1:-2:2:12:-4:-7:-4:-2:-0.465332:-0.876465:0.230957:-0.375:-0.4375:-0.9375
1562065224367524:-1:-1:-4:-10:-2:-5:-2:-1:-0.462402:-0.873535:0.236328:0:-0.6875:-0.6875
1562065224416529:0:2:0:7:0:-1:-2:-1:-0.464844:-0.877441:0.23877:-0.0625:-0.6875:-0.4375
1562065224464534:1:1:-2:-1:10:3:2:1:-0.458496:-0.879395:0.233398:-0.75:-0.375:-0.3125
1562065224523540:0:1:1:4:13:0:-1:-1:-0.463379:-0.880371:0.22998:-1.0625:-0.875:-0.375
1562065224574545:-2:0:-4:-8:5:3:2:0:-0.459473:-0.879395:0.236328:-0.625:-0.4375:-0.25
1562065224618549:-1:-1:-3:-2:-6:-1:0:0:-0.464355:-0.874512:0.237793:-1.4375:0.3125:-0.1875
1562065224666554:-1:0:0:-4:10:-3:-3:-1:-0.455078:-0.880371:0.239258:-0.5625:0:0.125
1562065224716559:0:2:0:-9:-2:-1:1:1:-0.45752:-0.883789:0.221191:-0.875:0.4375:0.125
1562065224767564:-1:-1:-1:4:15:-2:0:-1:-0.461426:-0.878906:0.233398:-0.5:0:0.625
1562065224822569:-1:-3:-3:-3:-3:-1:-1:-1:-0.466309:-0.878906:0.229492:0.375:0.375:0.4375
1562065224869574:-1:-2:-3:4:-8:5:2:0:-0.462402:-0.876953:0.237793:-0.0625:-0.75:0.3125
1562065224919579:-1:-1:-2:-9:-13:0:-2:0:-0.466797:-0.876953:0.233398:0:0.0625:0.125
1562065224967584:-1:1:-1:-6:2:-1:-1:-2:-0.461914:-0.878418:0.227051:-0.3125:0.125:-0.1875
1562065225027590:-1:1:-1:8:1:-2:-2:-1:-0.46582:-0.877441:0.230957:0.0625:0.1875:-0.375
1562065225076595:-1:-1:0:-7:-16:-1:-3:0:-0.464844:-0.878906:0.235352:-0.25:-0.3125:-0.25
1562065225127600:1:-2:0:11:13:6:2:1:-0.464355:-0.875977:0.235352:-0.625:-0.75:-0.25
1562065225169604:1:2:1:-9:-5:0:-1:1:-0.462891:-0.87793:0.227051:0.0625:-0.25:0.3125
1562065225229610:-1:0:0:-2:-4:2:-1:-2:-0.459961:-0.876465:0.236328:0.375:0.625:0.5
1562065225279615:0:1:-3:5:-3:-2:-2:-1:-0.463379:-0.87207:0.231445:0.25:0.5625:0.6875
1562065225327620:-1:0:-4:3:16:-4:-3:1:-0.467285:-0.877441:0.230957:-0.25:-0.25:0.625
1562065225376625:-1:-1:-4:4:-7:-6:-3:-2:-0.468262:-0.878418:0.231445:0.125:-0.9375:0.5625
1562065225428630:-1:-1:0:3:-6:-2:1:-2:-0.46582:-0.878418:0.233887:0.25:-0.9375:0.125
1562065225482635:0:0:1:-2:6:-3:-2:2:-0.470703:-0.87207:0.238281:-0.75:-0.9375:-0.125
1562065225530640:0:0:-2:11:-8:-1:2:0:-0.464844:-0.875488:0.237305:0:-0.0625:0.4375
1562065225578645:-1:-3:2:-3:7:1:2:-1:-0.459473:-0.879883:0.233887:-0.375:0.75:0.75
1562065225629650:-1:-3:-1:3:7:-3:1:1:-0.467773:-0.873535:0.233398:-0.6875:0.75:0.6875
1562065225684656:-1:-1:1:1:1:-2:-1:-1:-0.469727:-0.875:0.223633:-0.1875:-0.0625:0.375
1562065225729660:1:1:3:11:-2:-1:0:1:-0.468262:-0.877441:0.232422:-0.125:-0.25:0.1875
1562065225782665:1:1:5:5:-2:3:3:0:-0.466797:-0.875977:0.235352:0.8125:-0.8125:0.1875
1562065225828670:-1:-2:-2:18:2:-3:-1:-1:-0.464355:-0.877441:0.234375:-0.625:-0.0625:0.125
1562065225888676:-2:0:-2:2:-7:0:-1:0:-0.466309:-0.871094:0.232422:0.625:0.125:0.25
1562065225939681:-2:-1:-1:4:4:2:0:-1:-0.468262:-0.875:0.236816:-0.5625:-0.375:0.375
1562065225983686:-1:1:-1:1:3:0:-1:-1:-0.464355:-0.880371:0.234863:0.0625:0.1875:0.3125
1562065226028690:-1:0:5:-1:-1:3:1:0:-0.471191:-0.876465:0.233398:-0.5:0.125:0.3125
1562065226089696:-1:-1:-6:4:2:0:2:1:-0.467285:-0.875:0.229004:-0.25:0.5:0.5
1562065226129700:14:5:4:53:19:0:1:1:-0.47168:-0.880371:0.23291:-1.625:-0.625:1
1562065226189706:14:-9:-3:26:-36:-13:-9:-3:-0.469727:-0.875:0.22998:12.4375:-3.1875:5.25
1562065226238711:-12:-4:-7:-49:-12:-3:-6:-2:-0.516113:-0.812012:0.245605:15.875:-2.0625:-0.625
1562065226290716:8:-1:4:62:14:-7:-6:-4:-0.457031:-0.857422:0.268066:12.375:-2.125:-1.0625
1562065226329720:-5:-1:-13:-85:-26:0:4:-3:-0.458984:-0.872559:0.265625:10.4375:-2.1875:-1.5
1562065226389726:-18:8:11:20:10:9:4:9:-0.480469:-0.876465:0.269043:7.625:-5.6875:-1
1562065226440731:-35:0:-2:-15:16:-6:-2:-2:-0.460938:-0.839844:0.288086:6.875:-3.625:-1.25
1562065226492736:15:0:-4:43:24:5:-1:-2:-0.45752:-0.87793:0.271973:-4.125:-1.0625:0.125
1562065226531740:-6:1:-2:31:51:-3:-6:-18:-0.473145:-0.848145:0.274414:-2.875:-4.25:-0.75
1562065226591746:8:-1:0:23:-4:-2:0:-2:-0.455078:-0.851562:0.273438:-1.75:-2.1875:-1.4375
1562065226644752:1:-2:2:2:-8:2:0:-8:-0.458984:-0.874512:0.289062:-4.9375:-2.5625:-0.125
1562065226692756:3:1:-1:-8:-27:-2:-1:1:-0.458984:-0.852539:0.277832:-7.0625:-1.4375:0.5625
1562065226741761:-1:-3:-1:4:14:-12:-5:-2:-0.452148:-0.868164:0.271973:-11:4.3125:-0.6875
1562065226792766:1:-3:1:7:17:-4:-3:-3:-0.460449:-0.847168:0.261719:-16.8125:7.6875:-0.5625
1562065226831770:1:8:-1:-7:-15:-2:-2:-2:-0.462402:-0.86377:0.230469:-22.875:8.5625:-1.9375
1562065226890776:0:-2:1:-2:-13:-3:0:0:-0.473633:-0.894531:0.202637:-3.875:7.875:-5.5
1562065226944782:-3:1:0:-1:-5:0:-3:-4:-0.478027:-0.899902:0.207031:3.875:-4.3125:-4.4375
1562065226991786:0:-1:3:19:5:0:1:1:-0.455566:-0.876465:0.233887:4.0625:-6.125:-1.1875
1562065227040791:0:0:3:32:20:0:-1:-1:-0.429199:-0.89502:0.254883:0.9375:-2.4375:0.1875
1562065227092796:0:0:-3:-15:-6:-1:-1:1:-0.456055:-0.869141:0.23877:1.625:2.9375:0.4375
1562065227147802:1:-2:-1:1:-13:-7:-2:-2:-0.458496:-0.883789:0.229492:-0.625:2.8125:0.4375
1562065227191806:-1:0:1:27:4:-1:-1:-1:-0.461914:-0.880859:0.22168:0.9375:2.125:0.9375
1562065227244812:-1:1:-1:7:3:1:1:0:-0.45459:-0.883301:0.223633:0.4375:1.0625:0.125
1562065227292816:0:-3:-7:-1:-4:-1:0:2:-0.461426:-0.878906:0.232422:0.875:0.375:0
1562065227341821:1:0:1:-8:-6:1:-1:-1:-0.458008:-0.879395:0.224609:-2:-0.9375:-0.125
1562065227394827:-2:-3:-1:4:-1:-1:-2:-1:-0.458008:-0.882324:0.227539:-0.0625:-0.9375:0.4375
1562065227447832:0:-1:-1:6:-5:0:-1:0:-0.458008:-0.875977:0.233398:0.4375:-1:0.5625
1562065227490836:0:0:-2:-4:-4:1:0:-1:-0.460938:-0.882324:0.228027:-0.875:0.125:0.5
1562065227550842:-1:-1:-1:-1:-7:-3:-2:-1:-0.458008:-0.883789:0.233398:1.1875:0.9375:0.4375
1562065227594847:-1:-1:-1:0:6:0:-1:-1:-0.466309:-0.875:0.229492:-1.8125:0.875:0
1562065227650852:0:1:0:-2:-4:-4:0:1:-0.461426:-0.874512:0.22168:-0.3125:0.9375:-0.25
1562065227693857:-2:0:1:17:9:0:-2:-3:-0.458008:-0.876465:0.218262:-0.8125:0.9375:-0.75
1562065227753863:-1:-1:-1:8:7:-4:-3:-3:-0.458496:-0.884277:0.231934:0.125:0:-0.625
1562065227791866:1:1:1:-3:-6:-2:0:1:-0.464844:-0.883789:0.225586:-1.375:-0.5:-0.625
1562065227851872:-3:0:0:1:5:-2:-1:-1:-0.461426:-0.88623:0.228516:-0.9375:-0.6875:0.3125
1562065227904878:0:-3:-3:5:0:4:-2:-2:-0.458008:-0.883789:0.223145:0.4375:-0.5:0.3125
1562065227955883:1:-1:-1:-4:-8:-4:-2:-1:-0.45752:-0.883789:0.222656:-0.375:0.3125:0.25
1562065227993887:-2:-3:-5:-2:9:-1:1:-1:-0.460938:-0.882812:0.220215:-0.3125:0.125:0.3125
1562065228053893:-1:0:0:-2:-7:1:0:-2:-0.459961:-0.882812:0.217773:-0.625:0.625:0.375
1562065228093897:0:-2:0:1:-2:1:2:1:-0.461914:-0.883301:0.227539:0.125:0.625:0.4375
1562065228154903:0:-3:-5:-3:1:-4:-1:-2:-0.458496:-0.87793:0.225098:-0.6875:0.5:0.1875
1562065228203908:-2:-2:-3:6:2:-1:-2:-2:-0.464844:-0.885742:0.214844:-0.75:1.125:0.25
1562065228256913:0:0:-2:-11:-16:2:2:1:-0.470215:-0.875:0.222656:-0.375:0.5:0.6875
1562065228293917:-1:-1:-5:-5:-11:-6:-3:-2:-0.46875:-0.874512:0.22168:-1.125:0.4375:0.4375
1562065228353923:-1:-1:0:-2:-4:0:-1:0:-0.463379:-0.883789:0.223145:-0.75:0.875:0.3125
1562065228406928:-1:0:1:-5:1:-2:-1:0:-0.45752:-0.880371:0.214355:-0.1875:0.5625:0.125
1562065228456933:0:-2:-4:3:1:1:2:-1:-0.469727:-0.878906:0.213379:-0.9375:0.4375:-0.1875
1562065228496937:-1:1:1:-1:4:-2:-4:0:-0.467285:-0.884277:0.213379:0.25:0.4375:0.25
1562065228556943:0:-1:-1:-6:-4:0:-3:0:-0.460938:-0.885254:0.224609:0:0:-0.0625
1562065228610948:-2:-1:0:-1:-2:-7:-4:-1:-0.464844:-0.878906:0.22168:0.3125:0.0625:0.1875
1562065228654953:-2:-2:-1:2:-1:2:0:-3:-0.461426:-0.881836:0.219727:-0.1875:-0.125:-0.0625
1562065228707958:-1:-1:1:-1:5:2:0:-2:-0.464355:-0.878418:0.219238:-0.6875:0.5:-0.375
1562065228758963:0:0:0:8:-4:0:0:-1:-0.46875:-0.883789:0.219238:-3.9375:-0.0625:0.375
1562065228795967:0:-2:-5:4:-6:-2:1:-1:-0.46875:-0.887695:0.215332:-2.8125:-0.3125:1.3125
1562065228855973:-2:-2:-6:-11:-12:0:-1:0:-0.466797:-0.885254:0.209473:-3.375:-1.1875:2.1875
1562065228908978:-1:-1:0:-2:0:-6:-3:-1:-0.464355:-0.884766:0.210449:-2.875:-2.375:2.3125
1562065228955983:-1:-4:-3:-1:2:1:3:1:-0.470215:-0.877441:0.209961:0.1875:-2.6875:1.9375
1562065229005988:1:1:-1:-5:-10:-1:-1:1:-0.466797:-0.878906:0.208496:0.875:-2.625:1.5625
1562065229057993:0:1:2:0:-4:2:1:-1:-0.475586:-0.879395:0.219727:0.5625:-2.25:1.1875
1562065229112998:-1:-1:2:7:-4:-3:-5:-1:-0.466797:-0.880371:0.214844:1.3125:-0.5625:1.125
1562065229157003:0:2:0:4:6:-1:1:-2:-0.474121:-0.87793:0.223633:-1.125:-0.25:0.625
1562065229209008:-1:-1:0:-3:3:-3:0:-1:-0.475098:-0.876465:0.216797:0.5:-0.25:1.4375
1562065229258013:-1:-1:-2:-8:-6:2:1:0:-0.474609:-0.876465:0.215332:-0.125:-0.625:1.625
1562065229306018:1:-1:0:-2:-2:-1:0:-2:-0.470703:-0.874023:0.222656:0.4375:-0.4375:1.75
1562065229359023:-3:-2:-5:-5:-17:-4:-2:-2:-0.477539:-0.873047:0.211426:0.375:-1.1875:1.5
1562065229412028:0:-1:2:1:-6:2:0:-1:-0.477539:-0.875488:0.214355:0:-1.5625:0.9375
1562065229456033:-1:1:0:0:3:0:-1:-1:-0.476074:-0.874512:0.219238:-0.25:-1.3125:1.1875
1562065229516039:-1:-1:-1:1:-8:-1:0:0:-0.475098:-0.868164:0.21875:-0.0625:0:0.8125
1562065229569044:-1:-1:0:0:-4:-3:-3:0:-0.481445:-0.873047:0.220703:-0.0625:0.375:0.6875
1562065229615049:0:0:0:-3:4:0:-1:0:-0.484375:-0.87207:0.220703:-1.3125:0.25:0.6875
1562065229659053:-3:-1:1:-2:14:3:-1:-1:-0.486328:-0.873047:0.216797:-0.25:0.25:0.8125
1562065229719059:-1:-1:-1:-3:-4:-3:0:-2:-0.477051:-0.870117:0.221191:-0.5:0.5625:0.75
1562065229756063:0:-1:1:-2:-17:-5:-3:-2:-0.479492:-0.873535:0.212891:-0.4375:0.1875:0.75
1562065229817069:-1:0:-2:2:-3:4:-1:-1:-0.482422:-0.868164:0.213867:-0.875:0:0.3125
1562065229869074:-1:-1:0:2:0:-4:-1:-2:-0.486328:-0.873047:0.213867:-0.8125:-0.3125:0.375
1562065229920079:-1:-1:1:-5:5:2:-1:-1:-0.483398:-0.871094:0.212891:-1.75:-0.125:0
1562065229960083:1:-3:-4:-8:-9:-2:-1:-2:-0.479492:-0.876953:0.21875:-1.5:-0.3125:0.1875
1562065230019089:-1:-1:-1:4:-8:-6:-2:0:-0.488281:-0.872559:0.217285:-0.5625:-1:-0.1875
1562065230072094:-1:-2:-3:1:3:3:1:-1:-0.482422:-0.871582:0.211914:0.5625:-0.8125:-0.375
1562065230120099:-1:-1:-2:0:-3:-1:1:2:-0.478516:-0.875488:0.214355:0.125:0.0625:-0.125
1562065230169104:-1:-1:-4:-8:5:1:-1:0:-0.483398:-0.872559:0.217773:0.25:0.4375:0
1562065230221109:0:-1:-2:0:-7:0:-3:-3:-0.485352:-0.871582:0.212891:-0.0625:0.375:0.5
1562065230260113:-1:-2:-1:-3:-21:-1:1:-1:-0.485352:-0.868652:0.212402:-0.25:0.8125:0.5625
1562065230319119:0:0:1:-2:4:-3:-4:0:-0.483887:-0.874023:0.207031:-0.4375:0.3125:1.25
1562065230372124:0:1:3:-4:-8:-4:0:2:-0.486328:-0.876465:0.211426:-0.75:0.1875:0.8125
1562065230422129:-2:-4:-6:5:5:-6:-1:-2:-0.484863:-0.874023:0.216797:-1.375:0.3125:0.4375
1562065230468134:0:0:0:2:-4:1:-2:1:-0.487305:-0.867676:0.212402:0.6875:-1.0625:0.6875
1562065230522139:-3:-1:2:14:-11:-8:-3:-3:-0.48584:-0.869141:0.214844:-1.25:-0.125:0.3125
1562065230559143:-1:-2:-4:-8:11:3:-2:-1:-0.484863:-0.868652:0.211426:-0.875:-1.5:0.75
1562065230619149:-1:0:1:7:-5:0:-2:1:-0.485352:-0.864746:0.222168:-0.1875:0.9375:0.625
1562065230675155:0:3:2:2:7:2:1:-1:-0.490723:-0.874023:0.20752:0.0625:0.5625:1
1562065230720159:-2:-2:-2:0:4:1:-2:1:-0.493164:-0.865723:0.213379:-0.3125:0.75:1.1875
1562065230761163:1:2:4:1:8:3:-1:0:-0.487305:-0.87207:0.209473:-0.9375:-0.0625:1.0625
1562065230821169:-1:1:3:5:-2:-2:0:-1:-0.48877:-0.865234:0.216309:-1.625:-0.125:1.0625
1562065230877175:1:-2:-8:-41:-12:0:-4:-1:-0.492188:-0.874023:0.19873:-2.6875:-0.6875:1.5625
1562065230919179:2:-3:-6:-9:-2:0:-1:-2:-0.495117:-0.867188:0.213379:-1:-0.375:1.375
1562065230979185:3:0:0:11:3:3:0:0:-0.49707:-0.874512:0.192871:-1.875:-2.125:1.875
1562065231020189:1:0:2:-20:6:0:1:-1:-0.494141:-0.862793:0.211426:4.1875:-4.5:2.5625
1562065231076195:4:-1:-1:-36:-32:-4:1:-2:-0.495117:-0.844238:0.222168:4.3125:-15.1875:4.3125
1562065231122199:-9:-6:-3:33:-2:-14:-9:-9:-0.503418:-0.869141:0.227051:3.625:-13.9375:0.1875
1562065231177205:0:-6:-14:-128:17:-3:-1:8:-0.490234:-0.837402:0.248535:9.75:-10:-1.25
1562065231222209:-4:-5:-5:20:2:-7:-1:1:-0.481934:-0.854492:0.262207:5.375:-10.125:-2
1562065231279215:-8:-15:-38:55:17:-38:-18:-19:-0.488281:-0.827148:0.249023:13.75:-3.6875:-3.3125
1562065231324220:-37:4:2:70:-108:1:2:7:-0.46582:-0.887207:0.288574:8.125:-10.375:-3.3125
1562065231377225:1:-1:-5:-37:-35:-9:-9:-7:-0.487793:-0.834473:0.279297:18:-9.625:-2.4375
1562065231422229:-6:-10:-12:-50:56:-1:2:-12:-0.467285:-0.850586:0.298828:8.8125:-7.6875:-0.25
1562065231482235:23:14:10:48:46:-19:-7:0:-0.470215:-0.853516:0.301758:-0.6875:-4.6875:1.25
1562065231521239:-12:-1:-8:-10:6:4:3:4:-0.477539:-0.829102:0.296387:-1:-2.625:0.1875
1562065231579245:-19:-9:-13:-27:-7:-1:-1:7:-0.459473:-0.865723:0.305176:-0.125:1.1875:-1.375
1562065231623249:-6:-5:-23:-67:-37:-6:-4:-3:-0.467285:-0.866699:0.286621:-8.8125:-1.125:-0.125
1562065231684256:-1:0:1:22:72:10:4:0:-0.444336:-0.839844:0.330078:-17.5625:10.625:-0.1875
1562065231722259:-1:16:-4:12:10:-2:0:1:-0.503906:-0.825195:0.188965:-61.8125:14.5625:-2.875
1562065231782265:-1:-9:1:-6:-2:7:1:-1:-0.477051:-0.942383:0.186035:-14.1875:12.3125:-0.375
1562065231822269:1:9:6:8:4:-2:-2:0:-0.498535:-0.902344:0.167969:1.375:-5.4375:-10.375
1562065231881275:-1:-7:-2:-14:1:4:2:0:-0.474121:-0.873047:0.219238:10.5:-10.125:-7.4375
1562065231924280:-1:3:5:-7:-9:-3:-2:0:-0.438965:-0.896484:0.242676:4.375:1.6875:-3.25
1562065231984286:0:3:-1:15:7:3:2:0:-0.452637:-0.867188:0.225098:4.4375:4.0625:-1.4375
1562065232036291:-1:-2:4:1:-2:-1:0:1:-0.458496:-0.890625:0.215332:-0.1875:6.875:0.875
1562065232081295:-3:1:-4:1:-2:-2:-3:-2:-0.469727:-0.868164:0.209473:0.4375:3.625:1.875
1562065232138301:-2:-2:-3:-6:0:-3:-3:0:-0.469727:-0.887695:0.213867:-0.5:2.6875:0.625
1562065232186306:0:0:1:-7:-6:-2:-2:0:-0.469727:-0.881836:0.205078:-0.6875:0.875:0.4375
1562065232224310:-2:-2:1:-3:-2:-1:0:-1:-0.464355:-0.881348:0.216797:0.125:-0.1875:0.375
1562065232283315:-2:0:-1:-7:0:-3:0:0:-0.463867:-0.888672:0.212402:0.375:0.6875:-0.375
1562065232336321:-1:-4:-1:-1:6:3:1:0:-0.46875:-0.876953:0.222168:0.6875:0.6875:0.125
1562065232385326:-1:-1:0:-6:-3:-3:-1:0:-0.469727:-0.87793:0.225586:-0.4375:0.375:0.25
1562065232426330:-1:0:-4:5:-2:-3:-3:-2:-0.46875:-0.882324:0.216309:-0.5:1.4375:0
1562065232486336:1:-1:-3:1:-2:-2:-2:0:-0.466797:-0.876953:0.212402:-0.8125:1.375:0.75
1562065232538341:-1:-3:-2:-29:-9:0:-1:0:-0.473145:-0.880371:0.208984:-0.875:0.625:0.1875
1562065232584346:1:-1:-1:1:-1:9:2:0:-0.467773:-0.882812:0.212891:1.0625:-0.1875:0.5625
1562065232636351:-2:-5:-9:-3:-2:-3:-1:-1:-0.467285:-0.880859:0.220703:-0.875:0.5:0.125
1562065232685356:-1:0:-1:0:8:5:-1:0:-0.47168:-0.880859:0.219727:0.9375:0.25:0.4375
1562065232727360:0:-1:5:0:-1:3:3:2:-0.470703:-0.887695:0.213379:-1.125:0.5625:0
1562065232787366:-3:-3:-3:0:3:-2:0:0:-0.469727:-0.875:0.211914:-0.3125:0.375:0.5
1562065232839371:1:0:1:-4:0:0:-1:1:-0.472656:-0.879395:0.213379:-1.4375:0.5:-0.25
1562065232884376:1:-1:-2:-3:2:4:2:-2:-0.467773:-0.875488:0.216797:0.875:0.125:0.25
1562065232940381:1:-1:-1:-1:0:-1:0:-1:-0.464844:-0.880859:0.212891:-0.6875:-0.3125:0.875
1562065232989386:0:-1:-1:-3:-2:0:0:-1:-0.472168:-0.883301:0.210938:0.25:0.625:1.0625
1562065233041391:0:-1:-1:2:-4:-3:-3:-2:-0.475098:-0.878418:0.212402:0.25:1.1875:1
1562065233086396:-2:1:2:3:2:-1:-2:-1:-0.478516:-0.878906:0.211914:-0.6875:1.3125:0.8125
1562065233138401:-1:-1:-1:-5:-9:-2:1:0:-0.47998:-0.876465:0.208496:0.625:1.0625:1.3125
1562065233187406:0:-2:1:7:8:3:2:-1:-0.473633:-0.873535:0.217285:0.1875:0.75:1.25
1562065233244412:-1:-2:-3:-2:-4:-3:-3:-1:-0.479492:-0.868652:0.208008:-2.0625:0.125:1.125
1562065233288416:-3:-3:-7:-2:2:-2:-3:-3:-0.479492:-0.877441:0.206055:-0.875:0.125:0.875
1562065233341421:-2:0:-1:-1:4:3:-1:-2:-0.478027:-0.874023:0.210449:0.25:0:1
1562065233386426:-1:-3:-1:8:-1:1:0:0:-0.478516:-0.881836:0.211914:0.125:0.9375:0.6875
1562065233447432:-2:-1:0:-2:-6:1:0:-2:-0.482422:-0.876953:0.207031:0.9375:0.875:0.5
1562065233487436:1:0:1:-4:0:0:2:0:-0.48291:-0.874512:0.212891:0.25:0.6875:0.375
1562065233547442:1:0:1:-1:4:0:-1:1:-0.47998:-0.875488:0.209961:0.25:0.75:0.125
1562065233589446:-2:3:-1:-4:0:-4:-3:-1:-0.478027:-0.874023:0.20752:0.3125:0.5625:0.0625
1562065233649452:0:-1:-1:-1:-2:-3:0:1:-0.477051:-0.875977:0.211914:0.6875:1:0.3125
1562065233702457:0:-2:4:3:-15:-1:0:-1:-0.486816:-0.875977:0.208984:-1.0625:0.5625:-0.1875
1562065233747462:1:-1:-1:6:1:0:1:0:-0.484375:-0.870117:0.208008:1.375:0.375:-0.0625
1562065233798467:1:0:2:0:8:-2:-2:0:-0.478516:-0.881348:0.20459:-0.4375:0.3125:-0.4375
1562065233847472:-2:-1:0:-1:-3:-1:-2:-3:-0.486328:-0.874512:0.214355:-1.125:0.25:-0.375
1562065233903477:0:-1:-2:1:2:1:-3:-1:-0.481934:-0.875977:0.210938:-0.4375:0.5625:-0.1875
1562065233949482:0:-1:-2:2:-1:0:0:0:-0.480469:-0.874512:0.210938:-1.4375:1.0625:0.0625
1562065234002487:-2:1:2:-2:2:0:2:1:-0.488281:-0.875:0.201172:0.0625:1.375:0.25
1562065234047492:0:0:-1:9:10:0:-2:-1:-0.480469:-0.871582:0.207031:0.5:1.3125:0.4375
1562065234107498:0:-5:-2:1:2:4:0:-1:-0.487305:-0.870605:0.19873:-0.5:0.5625:0.1875
1562065234153502:-1:1:-1:11:3:-3:-2:0:-0.480957:-0.876465:0.206543:-0.625:0.1875:0.5
1562065234204508:-3:1:-1:-3:-1:-1:0:-1:-0.486816:-0.875977:0.200684:0.0625:0.375:0.75
1562065234248512:-1:-1:-1:-7:-6:-4:-1:-1:-0.489258:-0.874023:0.208984:-0.125:0.6875:0.8125
1562065234309518:1:0:-2:1:3:2:0:-1:-0.489258:-0.874023:0.203125:-0.4375:0.6875:0.6875
1562065234349522:-1:-4:0:1:-2:1:-2:-1:-0.494629:-0.874512:0.203613:-1.125:0.25:0
1562065234409528:-3:0:0:-2:3:3:1:1:-0.491211:-0.872559:0.204102:-0.25:0.3125:-0.3125
1562065234452532:-2:-4:-6:1:6:-5:-2:-2:-0.485352:-0.87207:0.200684:-0.4375:0.4375:0.0625
1562065234512538:-1:1:1:-1:-4:1:0:1:-0.489258:-0.870117:0.207031:-0.5625:0.6875:0.125
1562065234548542:0:-1:2:1:5:3:0:1:-0.482422:-0.879395:0.203613:-0.125:0.8125:0.625
1562065234609548:-3:0:-2:1:-2:-4:0:-1:-0.484375:-0.874512:0.203125:0.4375:0.75:0.875
1562065234661553:-1:1:0:1:0:-1:-1:0:-0.494629:-0.870117:0.196777:0.0625:0.1875:1.125
1562065234709558:0:0:-1:1:1:-2:1:1:-0.491211:-0.870117:0.199219:1.0625:0.25:1
1562065234752562:0:-2:-3:-1:-3:-3:0:1:-0.487793:-0.871582:0.202637:0.125:-0.0625:0.5
1562065234812568:-2:0:0:2:2:-3:-2:-2:-0.493652:-0.87207:0.201172:0.875:0.3125:0.75
1562065234863573:0:0:1:3:7:-3:-2:-2:-0.491211:-0.873535:0.202148:0.25:0.0625:0.3125
1562065234908578:-1:-3:0:6:5:-3:-2:0:-0.492188:-0.871094:0.202148:0.375:0.0625:-0.125
1562065234961583:0:0:-1:0:-4:-3:-1:-1:-0.492188:-0.869141:0.199707:0:-0.0625:0.125
1562065235015589:2:-1:-2:-7:-3:0:-3:0:-0.493652:-0.873535:0.19873:-0.1875:0.0625:0.5625
1562065235052592:0:-1:0:0:2:1:3:0:-0.493164:-0.868164:0.202637:0.6875:0.75:1.1875
1562065235111598:-1:-1:-1:1:-1:-2:0:0:-0.494629:-0.867188:0.20166:-0.3125:0.5625:0.75
1562065235164604:-2:0:-4:-1:-1:-5:-3:-2:-0.499023:-0.87207:0.198242:0.375:-0.25:0.0625
1562065235212608:-1:-2:1:4:-2:-1:-3:-1:-0.497559:-0.866699:0.196777:-0.0625:-0.625:-0.4375
1562065235254613:0:-2:0:-5:3:-1:0:0:-0.498047:-0.870117:0.205566:-0.1875:-0.9375:-0.625
1562065235314619:-1:0:3:-8:-18:-2:1:0:-0.493164:-0.869141:0.20459:-0.5:-0.8125:-0.8125
1562065235366624:0:0:-1:-1:-2:-1:-1:0:-0.493164:-0.871582:0.202637:0.1875:-0.0625:0
1562065235411628:-1:-2:-5:1:-1:1:-1:0:-0.495117:-0.869629:0.20166:-1.0625:0.25:-0.0625
1562065235464634:-1:-2:-3:-3:-6:-5:-2:-3:-0.497559:-0.870117:0.205566:0.5625:0.4375:0.1875
1562065235511638:-1:0:2:2:4:-2:2:-1:-0.491699:-0.869629:0.203125:-1.625:-0.25:0.3125
1562065235570644:1:1:2:1:-2:2:1:1:-0.495605:-0.868652:0.201172:0.1875:-0.25:0.75
1562065235615649:-20:-7:-7:-117:-28:-2:-6:-17:-0.493164:-0.916992:0.169922:-7.9375:-0.1875:3.9375
1562065235666654:-11:8:6:51:34:10:-3:-1:-0.468262:-0.893066:0.212891:15.6875:-0.9375:12
1562065235711658:-1:0:2:-69:32:-5:-3:0:-0.480469:-0.853516:0.202637:-5.3125:-3.9375:6.1875
1562065235763663:-8:-9:-6:-57:-43:-7:2:-7:-0.515625:-0.849609:0.26123:37.9375:-1.125:1.1875
1562065235817669:11:6:-11:-46:-16:3:-2:0:-0.524902:-0.865234:0.251953:5.9375:-9.625:0.0625
1562065235868674:5:5:0:-30:-30:2:0:10:-0.504883:-0.839355:0.263184:17.0625:-6.3125:1.125
1562065235915679:13:-2:0:-25:-26:-8:-3:0:-0.492676:-0.853516:0.279785:-10.625:0.4375:1.125
1562065235967684:-3:-2:0:-6:31:-7:-2:0:-0.515625:-0.807129:0.278809:-20.75:2.6875:2.6875
1562065236015689:4:0:2:-17:-8:-11:-3:1:-0.513184:-0.836426:0.194336:-53.9375:12:-3.625
1562065236057693:-1:-17:-12:6:6:1:-1:0:-0.522949:-0.924316:0.15918:-11.5625:1.3125:-3.6875
1562065236117699:-1:-1:2:3:1:2:0:-2:-0.502441:-0.873535:0.209961:6.0625:-5.25:-10.5625
1562065236168704:0:0:-3:-6:-10:3:1:2:-0.464844:-0.876465:0.236328:5.6875:-2.0625:-8.375
1562065236214709:1:-1:-1:-1:-6:-1:0:0:-0.483398:-0.902832:0.219238:2.625:2.8125:0.375
1562065236274715:0:-1:-2:-18:-2:-1:0:-1:-0.498047:-0.871094:0.205566:1.375:3.25:3.125
1562065236326720:0:0:3:20:-3:0:-1:-1:-0.504883:-0.862793:0.207031:3.75:3:2.875
1562065236375725:2:1:1:-5:7:4:2:0:-0.495605:-0.875:0.194336:-0.5625:3.6875:0.3125
1562065236416729:0:1:4:1:-2:-3:-1:-1:-0.500488:-0.858887:0.193848:0.75:0.3125:0.0625
1562065236477735:-1:2:1:-6:2:0:0:0:-0.498535:-0.869629:0.198242:-0.6875:-0.0625:-0.5
1562065236515739:-3:-3:2:9:1:1:-2:-2:-0.501465:-0.864258:0.200195:0.4375:-0.8125:-0.375
1562065236574745:0:0:-1:-9:-1:0:2:0:-0.494141:-0.869629:0.211914:0.125:0.125:-0.1875
1562065236627750:0:-2:0:3:0:-2:-1:0:-0.495117:-0.864258:0.20459:0.5:-0.4375:-0.125
1562065236674755:1:0:0:-3:-3:-2:0:1:-0.500488:-0.858887:0.210938:0.875:1.25:-0.25
1562065236716759:0:0:3:-8:0:-2:1:-1:-0.500977:-0.87207:0.203613:-0.375:1.0625:-1.25
1562065236777765:-1:1:-3:1:-2:1:1:-1:-0.50293:-0.865234:0.196289:-0.375:-1:-1.0625
1562065236829770:-2:0:-1:4:-2:-3:-1:-2:-0.494141:-0.867188:0.20752:0.125:-0.3125:-1.8125
1562065236873774:-1:0:0:2:2:2:0:0:-0.494629:-0.874023:0.206543:-0.625:-0.75:-1.6875
1562065236919779:-1:-1:1:1:-8:-2:0:-1:-0.496094:-0.866211:0.20166:-1.875:-0.0625:-0.8125
1562065236979785:-2:-2:-5:-11:-6:1:-2:0:-0.48877:-0.867676:0.20166:0.5625:-0.125:-0.1875
1562065237031790:-2:-1:-2:3:-2:-3:-2:-2:-0.495117:-0.865234:0.206543:-1.25:-0.375:0.0625
1562065237076795:-1:-2:-3:2:2:0:1:-1:-0.491211:-0.868652:0.19873:0.625:0.5625:-0.1875
1562065237128800:2:-2:0:-2:-1:1:0:-1:-0.491699:-0.870117:0.197754:-0.9375:1:-0.1875
1562065237177805:0:-2:-2:8:-2:-1:0:-2:-0.496582:-0.870605:0.197754:0.5:-0.0625:0.375
1562065237234811:-2:0:-1:0:-1:1:-2:-1:-0.501465:-0.870117:0.202148:-0.625:0.5:-0.0625
1562065237279815:-2:-1:1:-2:2:-2:1:1:-0.494629:-0.870605:0.204102:0.25:0:-0.25
1562065237331820:-1:-2:-1:-1:-1:0:-3:-1:-0.498047:-0.871582:0.208008:-0.75:-0.1875:-0.375
1562065237377825:-2:0:0:6:3:-4:0:-3:-0.492676:-0.868652:0.20459:0:0.25:-0.5
1562065237429830:0:-4:1:0:5:2:0:1:-0.489746:-0.870117:0.20459:-0.1875:-0.375:-0.875
1562065237488836:-2:-2:0:-1:1:0:-2:-3:-0.492676:-0.867676:0.200195:-0.375:-0.25:-0.6875
1562065237534841:-2:0:0:3:0:-2:-1:0:-0.487793:-0.868164:0.20459:-0.25:0:-0.4375
1562065237581845:-1:2:2:-3:-1:0:0:0:-0.493652:-0.878418:0.198242:0.0625:0.125:-0.3125
1562065237632850:-1:1:2:-2:1:0:-2:-1:-0.493652:-0.868652:0.19873:0.1875:0.4375:-0.125
1562065237680855:-1:0:2:-3:0:1:-1:1:-0.495605:-0.871582:0.197266:-0.25:-0.125:0
1562065237739861:-1:0:0:-5:2:1:-1:-1:-0.48877:-0.87207:0.203125:-0.1875:0.3125:0.0625
1562065237788866:-2:-3:-2:2:1:1:-1:-1:-0.492676:-0.872559:0.20166:0:0.1875:0.3125
1562065237834871:-1:-2:-1:-4:-8:1:0:1:-0.490723:-0.868164:0.201172:-0.25:0.4375:0.4375
1562065237882875:-3:0:-5:-3:-1:-3:-2:-2:-0.492188:-0.873047:0.199219:-0.125:0.25:0.1875
1562065237931880:1:0:0:6:1:-3:-1:-1:-0.494141:-0.868652:0.202148:0.5625:0.4375:0.4375
1562065237983885:-1:-2:-2:-1:-3:-2:-1:0:-0.5:-0.864258:0.200195:-0.5:0:0.1875
1562065238038891:0:1:1:7:-2:-3:-2:-2:-0.494629:-0.870605:0.201172:0.375:0:0.25
1562065238084896:2:0:0:2:-1:-2:-2:0:-0.491699:-0.877441:0.194824:-0.5625:0:-0.0625
1562065238133900:-2:0:1:-11:-4:-1:0:-2:-0.493164:-0.870117:0.19873:0.5:-0.0625:0.125
1562065238181905:-1:-1:0:8:2:-4:-3:-2:-0.494629:-0.868652:0.19873:0.4375:-0.0625:0
1562065238231910:1:-1:0:-7:-1:0:-3:-1:-0.492676:-0.874023:0.204102:-0.3125:-0.3125:-0.1875
1562065238282915:0:0:-1:-2:-2:-1:-2:-1:-0.496582:-0.873535:0.197754:0.3125:0.0625:0.125
1562065238338921:-1:1:0:-8:1:-2:1:-1:-0.495117:-0.865234:0.198242:0.5:0.1875:0.3125
1562065238384926:-1:-3:-1:-3:4:0:-2:0:-0.491211:-0.875:0.199219:0.125:0.25:0.125
1562065238433930:-1:0:-1:1:-5:-2:2:1:-0.491211:-0.861816:0.203613:0.5625:-0.375:0.3125
1562065238481935:0:2:-2:-18:-4:-3:-1:-2:-0.491211:-0.871582:0.201172:-0.3125:0.0625:-0.125
1562065238531940:2:-3:-1:8:-1:-1:-4:-3:-0.494629:-0.866211:0.200684:0.5625:-0.25:0.3125
1562065238582945:1:0:5:10:3:2:-1:1:-0.492676:-0.869141:0.202148:-0.5625:-0.125:0.375
1562065238636951:0:-2:-5:-27:-3:0:-1:-1:-0.496582:-0.865234:0.204102:0:0.75:0.3125
1562065238684956:-1:-1:-2:4:-1:-3:-2:1:-0.499512:-0.868652:0.19873:-0.0625:0.6875:0.375
1562065238744962:-1:-1:-3:4:4:2:-1:-1:-0.494141:-0.867188:0.207031:0.3125:0.375:0.0625
1562065238793966:0:-1:-1:5:0:1:1:0:-0.495117:-0.872559:0.197754:-0.1875:0.125:0.1875
1562065238845972:0:0:2:-3:-1:-2:2:0:-0.496094:-0.868652:0.199219:0.5625:-0.3125:0.0625
1562065238883975:1:0:-1:-3:-1:-4:-4:0:-0.5:-0.858398:0.202148:-0.375:-0.3125:-0.25
1562065238943981:-3:3:-3:15:-2:-3:-3:-1:-0.495117:-0.868652:0.201172:0.5625:-0.3125:0.0625
1562065238997987:-1:-3:0:-2:-4:-1:0:2:-0.493164:-0.873535:0.199219:-0.625:0:0.1875
1562065239044992:-1:0:4:4:6:4:1:1:-0.499512:-0.869141:0.205078:0.625:-0.1875:0.9375
1562065239094997:0:0:-2:0:-1:0:-3:-2:-0.499512:-0.869141:0.200195:-1.0625:0.3125:0.625
1562065239145002:-1:-9:-3:0:2:-3:1:-1:-0.49707:-0.860352:0.20166:0.375:0.5:0.25
1562065239201007:-2:-4:-4:3:3:-1:-2:0:-0.502441:-0.868652:0.196777:-0.75:0:-0.0625
1562065239248012:0:0:-1:-13:-2:0:1:1:-0.498047:-0.862305:0.198242:0.125:-0.1875:0.125
1562065239297017:-1:-4:-1:6:4:1:-2:-2:-0.498535:-0.869141:0.199219:-0.0625:-0.75:-0.1875
1562065239348022:-1:-1:-1:1:0:-3:0:0:-0.5:-0.862793:0.207031:-0.25:-0.75:-0.5
1562065239395027:-2:-2:-1:-1:2:0:-3:-1:-0.5:-0.867676:0.202148:-0.25:-1.625:-0.4375
1562065239446032:0:0:1:19:1:-1:1:-2:-0.496094:-0.867676:0.203125:0:-0.25:-0.1875
1562065239500037:-2:-4:-4:-2:-1:-1:-2:-1:-0.497559:-0.869629:0.206543:0.5625:-0.125:-0.125
1562065239548042:0:-2:0:1:-3:-1:-1:-1:-0.49707:-0.870605:0.199219:0.1875:0.0625:-0.1875
1562065239597047:-2:-3:1:2:-3:1:0:1:-0.498047:-0.869141:0.202637:0:0.25:0
1562065239649052:0:1:1:-3:4:-1:-2:-1:-0.495117:-0.870117:0.202637:0.5625:-0.125:0.3125
1562065239705058:0:0:1:-8:-3:-1:-1:0:-0.495605:-0.866211:0.20752:0.25:0.375:0.125
1562065239747062:-1:0:-1:5:-2:0:0:1:-0.500488:-0.868164:0.20459:-0.125:-0.25:0.3125
1562065239800067:-1:-2:-3:4:-1:-2:-1:-2:-0.494629:-0.868164:0.199707:0.125:0.4375:-0.1875
1562065239847072:0:0:3:4:-8:-1:1:1:-0.497559:-0.866699:0.208496:0.0625:0:-0.125
1562065239896077:-1:-2:-3:18:1:-5:-1:-2:-0.499023:-0.870117:0.200684:-0.4375:-0.1875:-0.5625
1562065239947082:1:0:0:2:2:1:0:0:-0.500488:-0.867188:0.209473:0.25:-0.1875:-0.5
1562065240003087:0:-1:1:-4:-4:-2:-2:-1:-0.494141:-0.873047:0.200195:-0.4375:0.125:-0.5625
1562065240046092:-1:-4:-2:-3:5:0:-3:-2:-0.499512:-0.861816:0.200684:-0.3125:-0.0625:-0.3125
1562065240107098:-1:0:3:-3:-7:-6:0:-1:-0.498535:-0.866699:0.202637:0.25:0:-0.5
1562065240147102:-3:1:-3:-13:-4:-1:-2:-4:-0.500488:-0.866699:0.199219:-0.6875:-0.3125:-0.375
1562065240197107:0:-3:-1:5:0:-3:-2:-1:-0.494629:-0.865234:0.203613:0.25:0:0.125
1562065240248112:0:-1:2:11:0:-4:-3:0:-0.493164:-0.870117:0.20166:-0.8125:0.125:-0.1875
1562065240304117:0:-4:0:4:1:3:-2:-1:-0.496094:-0.864746:0.203613:-0.25:-0.0625:-0.375
1562065240347122:-1:0:1:10:3:-1:0:0:-0.495117:-0.870605:0.200684:-0.5:-0.375:0.0625
1562065240406128:-49:-25:-24:-15:-69:-27:-5:-12:-0.504883:-0.913574:0.160645:-6.625:-2.5625:1.1875
1562065240448132:-1:-6:0:60:46:-14:-8:-5:-0.430664:-0.813965:0.311035:40.6875:-3.9375:12.8125
1562065240507138:-45:2:2:15:-25:2:-8:-21:-0.447754:-0.958984:0.22168:-11.0625:-5.6875:4.75
1562065240557143:5:1:4:-69:54:2:3:9:-0.533203:-0.793457:0.213379:21.875:0.3125:3.9375
1562065240609148:14:4:1:23:0:1:2:4:-0.533203:-0.830078:0.240234:10.8125:2.0625:-0.8125
1562065240647152:19:9:1:-28:-7:-2:2:-1:-0.521484:-0.839355:0.226074:7.375:-1.6875:1.25
1562065240707158:-3:-6:4:14:19:6:2:1:-0.511719:-0.847656:0.225098:1.875:-3.5625:-0.0625
1562065240761163:-22:-4:-9:-77:-80:-17:-9:-9:-0.496582:-0.845703:0.269531:0.375:-2.0625:0.5625
1562065240811168:-15:0:-1:0:5:7:4:5:-0.51123:-0.837891:0.231934:2.625:-1.4375:0.625
1562065240849172:-22:0:-6:-60:-62:10:5:7:-0.50293:-0.856445:0.275391:-0.9375:0.5625:1.375
1562065240910178:3:1:-5:-26:-64:-13:-5:-7:-0.518555:-0.840332:0.236816:-0.5:1.4375:1.3125
1562065240962183:4:-3:-6:-16:61:-6:-3:2:-0.519043:-0.850098:0.249023:0.3125:1.25:0.375
1562065241007188:-4:1:4:-16:20:2:1:0:-0.515137:-0.836426:0.241699:2.3125:-1.9375:-0.0625
1562065241060193:-8:-9:1:-10:8:-1:-3:-2:-0.51123:-0.84082:0.24707:0.0625:-0.8125:-0.875
1562065241110198:-4:0:1:40:23:-4:-2:0:-0.513184:-0.845703:0.256348:-1.75:-2:-0.75
1562065241149202:-5:-1:-3:-4:-3:3:-3:-1:-0.505859:-0.84375:0.265137:-4.375:1.4375:-0.0625
1562065241209208:0:-1:1:-1:-10:2:2:-1:-0.526367:-0.798828:0.225586:-39.1875:4.9375:3.0625
1562065241262213:0:0:-3:1:12:2:0:-1:-0.527832:-0.859863:0.184082:-41.8125:2.375:-1.4375
1562065241299217:-3:-1:-3:25:13:-2:-2:-1:-0.52002:-0.892578:0.165527:-10.4375:-1.6875:-5.25
1562065241360223:-1:0:0:8:2:1:-1:-1:-0.500488:-0.88623:0.202637:4.375:-0.3125:-10.6875
1562065241410228:-1:-1:2:7:0:-2:-1:-3:-0.479492:-0.892578:0.219727:-0.125:-2.125:-3.875
1562065241465234:0:-2:-3:6:10:3:-1:-1:-0.462402:-0.906738:0.216309:4.125:5.4375:0.8125
1562065241509238:0:-1:0:-35:-5:-2:-1:-1:-0.513672:-0.841797:0.193848:1.9375:3.125:2.6875
1562065241562243:0:-1:-2:2:-10:-3:-1:0:-0.501953:-0.867676:0.195801:2.0625:0.375:1.5625
1562065241610248:-2:1:-3:2:2:0:0:0:-0.501465:-0.863281:0.203125:1.625:-0.4375:-0.3125
1562065241651252:-1:1:-3:-1:-3:-2:0:-1:-0.5:-0.868652:0.20459:-0.25:-0.8125:-1.3125
1562065241712258:0:0:-3:-6:-1:0:-2:0:-0.494141:-0.874023:0.199707:0.75:0.1875:-0.6875
1562065241765264:-2:-2:0:9:1:-3:-1:-1:-0.501953:-0.864258:0.210449:0.5:0.6875:0.5
1562065241809268:-2:1:0:-4:-7:0:-1:1:-0.5:-0.866211:0.203613:-0.25:1.1875:0.4375
1562065241869274:-1:-2:-3:-4:-7:-6:-1:-1:-0.498047:-0.864258:0.201172:0:1.0625:-0.125
1562065241912278:-1:-3:-5:-4:1:-3:-2:-2:-0.500977:-0.866699:0.20166:-0.3125:1.125:-0.25
1562065241968284:1:0:-2:-9:-1:-2:0:0:-0.499512:-0.860352:0.195312:0.125:-1.0625:0.375
1562065242011288:8:0:3:3:0:2:0:0:-0.497559:-0.860352:0.206543:0.125:-0.8125:0.75
1562065242065294:0:-2:-2:2:0:-1:-1:0:-0.5:-0.878418:0.190918:-1.0625:-0.3125:-1.25
1562065242109298:2:-1:0:-4:-2:2:0:-1:-0.504395:-0.861816:0.204102:3.8125:-1.25:-0.75
1562065242162303:-1:-1:-1:5:1:-1:0:-1:-0.501465:-0.855957:0.209961:0.4375:-0.5625:-3
1562065242221309:-1:0:-4:0:-3:0:1:1:-0.491211:-0.863281:0.201172:0.25:-0.8125:-4.0625
1562065242268314:0:0:2:6:2:-4:-3:0:-0.475586:-0.886719:0.207031:-2.0625:-1:-2.375
1562065242312318:-2:0:-1:8:1:-1:-2:0:-0.495117:-0.88623:0.205078:0.125:-1.3125:0.9375
1562065242372324:0:-2:-1:-28:-7:1:0:1:-0.509277:-0.862793:0.202148:0.0625:2.5625:2.375
1562065242412328:-2:-1:-3:-8:4:-1:-3:0:-0.511719:-0.853027:0.206543:1.4375:1.1875:0
1562065242472334:-1:-2:-1:0:5:0:-1:-1:-0.489258:-0.858398:0.203613:1.9375:0.875:-3.3125
1562065242522339:0:1:2:-1:2:0:-2:0:-0.486328:-0.870605:0.187988:1:-0.5625:-5.3125
1562065242574344:-1:-3:-3:-2:1:4:0:-2:-0.476074:-0.865723:0.199219:0.5625:-1.125:-6.1875
1562065242612348:-2:0:-2:9:0:-4:-2:0:-0.495117:-0.866699:0.235352:0.75:-3.125:-5.875
1562065242671354:0:0:-3:-7:-6:0:-2:-1:-0.490234:-0.876465:0.203125:-2.3125:-3.8125:-5.75
1562065242725360:0:0:-1:17:3:1:0:-1:-0.455078:-0.887695:0.22168:-2.4375:-2.5:-3.875
1562065242775365:-1:0:2:7:-5:-3:3:1:-0.442871:-0.898926:0.216309:-2.5625:-1.5625:-2.25
1562065242814368:-1:-3:-3:-11:-2:0:-3:-2:-0.459473:-0.886719:0.214844:-1.875:0.1875:-0.5
1562065242874374:-1:-1:-3:-2:-1:-2:-1:-1:-0.471191:-0.885742:0.19873:-1.8125:1.75:1.25
1562065242927380:0:-2:-2:2:0:-2:1:-1:-0.469727:-0.878906:0.204102:-2.625:1.6875:1.375
1562065242971384:0:-2:0:-12:-1:0:1:-1:-0.469238:-0.895508:0.193359:-2.8125:1.5625:1.375
1562065243025390:0:-3:-4:1:-6:-1:1:-1:-0.470703:-0.882812:0.193359:0.1875:1.25:2.3125
1562065243075395:-2:-1:4:-1:-1:0:-2:-1:-0.476074:-0.88623:0.194824:-0.75:1.375:1.9375
1562065243115399:0:-2:-1:-8:0:-1:-1:-1:-0.478516:-0.874023:0.206543:-0.125:0.875:1.5625
1562065243175405:-2:-2:-3:0:-6:0:-1:-1:-0.481445:-0.875488:0.202148:-3:0.9375:1.0625
1562065243228410:-1:-1:-1:-7:1:0:1:0:-0.486328:-0.874512:0.192871:-2.0625:1.4375:1.4375
1562065243275415:0:-2:0:0:3:0:-1:0:-0.479492:-0.880371:0.18457:-2.5625:0.875:1.1875
1562065243324419:-1:-1:3:10:-2:-1:-1:0:-0.481934:-0.882812:0.182617:-1.1875:0.8125:-0.125
1562065243376425:-1:0:1:-17:-4:1:0:0:-0.483887:-0.879883:0.183105:-1.5:-1.125:-0.9375
1562065243430430:0:-1:-1:13:4:3:1:1:-0.478027:-0.885742:0.189453:-0.4375:-1.375:-0.625
1562065243474434:1:-1:-3:5:0:-2:-1:-2:-0.465332:-0.885254:0.193359:-0.6875:-0.6875:0.3125
1562065243527440:-1:1:0:-6:-2:1:-3:-2:-0.482422:-0.873535:0.200684:-0.625:0.4375:1
1562065243577445:0:-1:-2:-5:-4:-2:-2:0:-0.48584:-0.875977:0.196777:0.5:0.6875:0.6875
1562065243633450:-1:-1:-1:6:1:-2:-2:1:-0.478027:-0.879395:0.19043:-0.5625:0.9375:0.125
1562065243676455:-1:1:0:-1:-1:-1:0:0:-0.475586:-0.883789:0.181152:-0.3125:0.4375:-0.1875
1562065243730460:0:0:2:-1:-2:-1:-2:0:-0.493652:-0.866211:0.182617:0.125:-0.1875:-0.9375
1562065243774464:-1:-1:-2:3:-1:1:0:-3:-0.481445:-0.884277:0.188965:0.6875:-0.375:-1.8125
1562065243834470:-1:1:2:7:2:1:3:2:-0.47998:-0.880371:0.179199:-0.125:-0.9375:-2.75
1562065243878475:-1:1:-6:-3:-2:-4:-2:0:-0.473633:-0.88623:0.189453:0.8125:-1.1875:-2.8125
1562065243933480:-1:-1:1:-3:-4:-4:-1:-3:-0.470215:-0.886719:0.186523:-0.0625:-0.875:-2.25
1562065243976485:-2:-2:2:4:1:0:-1:-1:-0.470215:-0.882324:0.196777:-0.375:-0.3125:-0.5625
1562065244036491:-1:-1:-2:1:-2:-1:1:2:-0.466309:-0.885254:0.192383:-0.375:0.9375:-0.3125
1562065244078495:1:0:-2:2:0:0:-1:1:-0.472168:-0.88623:0.192383:-1.25:0.875:-0.25
1562065244127500:-1:0:-1:-3:-1:-2:-2:-1:-0.478027:-0.885254:0.190918:-0.4375:1.25:0.375
1562065244186506:-1:0:-2:-1:-4:1:-1:0:-0.475098:-0.89209:0.186523:-1.0625:1.3125:0.5
1562065244238511:-1:0:-2:-5:3:0:0:1:-0.477539:-0.890625:0.19043:-0.875:0.9375:1.1875
1562065244277515:-2:-2:-1:0:0:3:0:-1:-0.48291:-0.881836:0.186035:0.375:0.9375:0.5
1562065244340521:-1:-1:0:0:-7:-3:-3:-1:-0.476562:-0.87793:0.186035:-0.4375:0.4375:-0.625
1562065244377525:0:-2:-2:-1:1:-1:0:-3:-0.47998:-0.878418:0.182129:0.3125:0.25:-0.5625
1562065244438531:1:1:-1:-2:-5:-3:-1:0:-0.473145:-0.891113:0.179199:0:-0.25:-0.875
1562065244479535:-2:-2:-2:9:3:-4:-2:-3:-0.47168:-0.884277:0.186035:0:0.3125:-0.125
1562065244540541:0:-1:1:-4:-2:0:0:0:-0.472168:-0.880371:0.18457:1.375:0.5:0.4375
1562065244591546:-3:-3:-2:2:0:-1:1:-1:-0.474121:-0.883301:0.194336:0.5:0.0625:1
1562065244636551:0:-1:1:-4:-2:0:1:-1:-0.470703:-0.883789:0.190918:0:0.25:1.75
1562065244692556:-2:1:-1:-4:-1:-1:-1:-1:-0.482422:-0.880371:0.18457:-0.625:0.875:2.5
1562065244737561:0:-1:-1:-5:-3:-1:-1:0:-0.479492:-0.878906:0.186523:0:1.25:2.5
1562065244794566:2:-1:-1:-2:-2:-3:0:0:-0.48877:-0.879883:0.180664:-0.125:1:1.9375
1562065244839571:1:-1:2:-3:-2:1:-2:0:-0.483887:-0.879883:0.179688:0.125:0.375:0.9375
1562065244891576:0:0:0:1:-1:-3:-1:0:-0.486328:-0.876465:0.192871:0.5625:0.1875:0.625
1562065244936581:-1:1:2:4:0:0:-2:1:-0.491211:-0.87793:0.187988:0.0625:-0.1875:0.1875
1562065244991586:-1:0:0:1:-1:-3:-3:-1:-0.480957:-0.872559:0.191406:0.6875:-0.0625:0.0625
1562065245037591:0:0:0:0:0:-1:-2:-2:-0.484375:-0.878418:0.180664:0.0625:-0.25:-0.0625
1562065245094596:-3:-4:-4:-4:-4:-3:-1:-3:-0.489746:-0.87793:0.180664:-0.125:-0.375:-0.5625
1562065245139601:-1:0:-2:3:-1:-4:-1:-1:-0.486328:-0.874512:0.1875:0.25:-0.6875:-0.5
1562065245191606:2:1:-1:0:0:-2:0:-1:-0.48291:-0.882812:0.186035:-0.5625:-0.8125:-0.6875
1562065245237611:0:-2:-2:-3:1:2:0:0:-0.480957:-0.875488:0.189941:0.125:-0.625:-0.25
1562065245296617:0:0:-1:0:-1:1:1:0:-0.478516:-0.877441:0.188477:-0.1875:-0.6875:-0.3125
1562065245341621:-1:-1:1:-2:-2:-3:-2:0:-0.481934:-0.875977:0.190918:0.875:-0.25:-0.375
1562065245394626:0:0:-2:-3:-4:-2:-1:1:-0.48584:-0.883789:0.187988:-0.3125:-0.4375:-0.1875
1562065245440631:-2:-1:0:-5:0:2:2:1:-0.482422:-0.881348:0.193359:0.375:-0.125:0
1562065245499637:-2:0:-5:6:-2:-3:-2:-1:-0.480469:-0.879395:0.199219:0.25:0.125:0.25
1562065245539641:-2:-2:-3:11:-3:-2:-4:-2:-0.479004:-0.878418:0.189453:-0.125:0.875:-0.375
1562065245600647:0:1:5:-3:-3:-3:-1:-2:-0.482422:-0.883789:0.196289:2.5:1.1875:-1.125
1562065245641651:1:-2:-1:-1:4:2:-1:-2:-0.488281:-0.884766:0.187988:-0.5:-0.25:-1.3125
1562065245701657:5:4:-1:-21:-1:-1:0:0:-0.494629:-0.879395:0.193848:0.75:-0.625:-0.125
1562065245739661:10:12:5:-34:3:7:1:-3:-0.489258:-0.918945:0.163574:-4.25:-1.4375:2.875
1562065245799667:15:-19:-8:-46:-32:4:1:7:-0.450684:-0.875:0.237793:22.0625:-6.625:12.375
1562065245840671:-31:7:6:16:18:-4:-4:0:-0.505371:-0.891602:0.195312:-1:0.5625:1.5625
1562065245899677:-17:-4:-6:-40:20:1:1:-1:-0.463379:-0.862305:0.230469:40.8125:1.1875:2.75
1562065245942681:-7:3:29:-21:18:-6:-5:2:-0.507812:-0.869141:0.244141:9.5:-10.1875:2.125
1562065246002687:70:14:-5:43:1:-7:-4:-2:-0.48291:-0.815918:0.247559:3.5:-7.1875:3.6875
1562065246054692:-29:1:4:-8:-21:2:0:-1:-0.48877:-0.850098:0.250977:4.25:-7:-1.1875
1562065246099697:-19:2:-7:-11:10:6:0:-2:-0.493164:-0.863281:0.265625:-3.9375:-2.625:-2.1875
1562065246155703:-2:-8:-1:19:33:2:0:4:-0.489746:-0.875:0.266113:-2.4375:-1.0625:2
1562065246204707:9:0:7:22:-2:3:-1:-3:-0.51416:-0.85791:0.261719:1.8125:2.6875:2.5
1562065246242711:11:-3:-3:-38:-41:2:2:1:-0.499023:-0.853516:0.229004:1.625:1.9375:-1.1875
1562065246302717:-11:-3:-1:-26:3:2:4:5:-0.472168:-0.84668:0.24707:2.75:0.5625:-2.5
1562065246353722:7:-1:-2:-21:-9:0:-3:0:-0.467773:-0.868164:0.263184:-0.25:-3.0625:-1.1875
1562065246402727:2:-3:-3:4:-1:4:-2:-2:-0.473633:-0.808594:0.265625:-30.75:8.75:6.625
1562065246460733:-1:-2:-1:-2:-2:-2:-1:-1:-0.492676:-0.828613:0.185547:-60.4375:7.625:2.6875
1562065246503737:-2:-8:-15:4:-26:-19:-5:-3:-0.517578:-0.938965:0.171875:-10.125:0.875:0.1875
1562065246556743:-2:-3:-2:-7:-18:-5:-2:-1:-0.487305:-0.879883:0.225098:13.3125:2.375:-4.3125
1562065246601747:-2:0:-2:-9:-13:-6:-1:-2:-0.477539:-0.884766:0.205078:-5.5:7.25:-4
1562065246653752:-2:-3:-2:-16:5:2:-1:1:-0.523926:-0.905762:0.171387:6.125:6.375:-0.8125
1562065246702757:-2:-2:-3:0:1:-3:-3:-3:-0.51416:-0.851074:0.1875:6.6875:4.75:3.6875
1562065246762763:0:1:2:13:-1:-1:0:-1:-0.498535:-0.87207:0.185059:-1.375:1.8125:2.375
1562065246804767:0:1:-1:12:-3:0:0:6:-0.491211:-0.854492:0.195801:1.375:0.1875:0.0625
1562065246856773:0:1:1:3:-2:-3:-1:2:-0.483398:-0.864746:0.205078:-2.1875:-1.0625:-1.4375
1562065246901777:1:0:2:-8:-6:-4:-2:-2:-0.494141:-0.873047:0.204102:0.6875:0.125:0.1875
1562065246961783:0:0:-2:-3:2:2:-1:0:-0.496582:-0.874023:0.206055:-2.875:0.5625:3.125
1562065247014788:0:0:0:-7:4:2:2:0:-0.48584:-0.871094:0.19873:-1.5625:4.5:6.6875
1562065247062793:-1:-1:1:12:3:-1:-1:-2:-0.506836:-0.859863:0.198242:-2.0625:6.5625:6
1562065247104797:-1:-2:-6:2:-5:0:-3:-1:-0.527344:-0.854492:0.188477:-0.875:6.0625:3.6875
1562065247164803:1:0:-3:-14:-1:2:0:0:-0.535645:-0.854004:0.174805:-1.75:5.9375:1.375
1562065247202807:2:-1:-2:-5:-1:0:0:-1:-0.519531:-0.852539:0.174316:0.8125:3.1875:-1.125
1562065247265814:0:-2:-1:4:-3:2:0:-2:-0.500488:-0.857422:0.172852:-0.875:0.8125:-2.4375
1562065247308818:-2:-1:1:-3:0:-1:-2:-1:-0.501465:-0.870605:0.179199:1.25:-0.625:-1.1875
1562065247359823:-2:-1:-2:1:-3:2:0:0:-0.49707:-0.869141:0.213867:-0.125:-0.75:-0.5625
1562065247403827:-2:0:0:-3:-1:-5:-2:-1:-0.47998:-0.878906:0.201172:1.5:1.5625:0.4375
1562065247464833:-2:0:0:4:-5:0:0:-3:-0.487793:-0.871094:0.191895:1.125:2.5:-0.5625
1562065247516839:0:-1:-1:-4:-4:-3:-2:-2:-0.491699:-0.873535:0.191406:3.875:5.125:-1.9375
1562065247564843:-1:0:0:3:2:-2:0:0:-0.498047:-0.871582:0.197266:3.125:6.375:-2
1562065247607848:1:-1:-2:-2:-4:-4:-2:1:-0.495117:-0.870605:0.192383:3.625:7.875:-2
1562065247643851:1:1:5:-1:0:0:-1:0:-0.50293:-0.858887:0.188965:4.5:8.75:-1.25
1562065247704857:-1:-1:-1:-4:-2:-4:0:1:-0.517578:-0.858398:0.181152:3.5:9.625:-0.9375
1562065247763863:-1:1:1:11:-1:-1:-1:-1:-0.507324:-0.863281:0.186035:2.75:10.1875:-1.4375
1562065247816869:0:1:1:-1:-3:-5:-2:-1:-0.519531:-0.867188:0.176758:3.1875:10.9375:0.0625
1562065247864873:-1:-1:-6:-1:1:-1:-2:-1:-0.538574:-0.860352:0.166992:3.125:11.3125:1.3125
1562065247907878:-2:-1:2:0:1:-4:-2:0:-0.537598:-0.82959:0.168457:4.125:10.9375:0.5625
1562065247966884:1:0:2:10:1:0:-1:1:-0.55127:-0.844727:0.164062:2.875:9.625:-1.125
1562065248004887:-1:-2:1:0:-1:-1:0:1:-0.54248:-0.845215:0.150391:4.25:8.0625:-0.875
1562065248063893:-1:-1:0:-2:-3:-4:-1:-1:-0.544434:-0.847656:0.156738:3.5625:6.75:-1.0625
1562065248116899:1:0:3:10:3:-1:-3:-4:-0.54248:-0.852539:0.152344:4.4375:4.25:-2.875
1562065248170904:-2:-1:1:-4:-2:-2:-1:-2:-0.557617:-0.843262:0.14502:1.125:3.0625:-2.4375
1562065248206908:0:0:-1:2:2:1:0:-1:-0.535156:-0.868164:0.171875:0.6875:1.9375:-2.6875
1562065248266914:2:1:0:-8:0:3:1:-1:-0.517578:-0.862793:0.169922:0.375:0.5625:-5.25
1562065248319919:2:-2:3:10:4:-1:-2:0:-0.472656:-0.890137:0.169434:5.5625:1.5:-5.5
1562065248366924:0:0:0:0:2:-1:-2:0:-0.498047:-0.869629:0.178711:5.875:2.375:-3.125
1562065248424929:0:-3:-2:-3:0:-2:1:-1:-0.52832:-0.857422:0.186523:2.3125:3.0625:-1.5625
1562065248470934:0:-1:1:6:-2:-2:-1:-1:-0.54834:-0.849121:0.171875:0.4375:2.75:0.25
1562065248506938:0:0:0:-2:-3:-2:-2:0:-0.522949:-0.864746:0.16748:0.5:1.8125:0.625
1562065248566944:-1:-3:-1:0:2:3:-1:1:-0.529785:-0.874023:0.154297:0:0.75:-1.0625
1562065248626950:-2:-4:0:-3:-1:-1:0:0:-0.549316:-0.851074:0.164062:0.5625:-0.125:-0.8125
1562065248666954:-2:-1:-3:-1:2:1:1:0:-0.52832:-0.864746:0.17334:2.4375:-1:-0.8125
1562065248727960:0:0:-3:-6:-4:1:3:2:-0.518066:-0.863281:0.182617:1.9375:-1:-1.375
1562065248769964:-1:-1:1:3:0:-2:-1:1:-0.509277:-0.86377:0.185059:1.0625:-1.375:-1.875
1562065248821969:-1:-2:-2:-1:-3:-3:-2:-1:-0.50293:-0.867188:0.19043:1:-1.1875:-2.3125
1562065248866974:-3:-1:4:-6:-3:-3:-2:-2:-0.506836:-0.858398:0.183105:-0.0625:-1.125:-2.75
1562065248927980:1:-2:-3:0:1:-1:-2:0:-0.501953:-0.882324:0.183105:1.4375:-0.875:-1
1562065248979985:-1:-2:-2:0:1:2:1:0:-0.475098:-0.878906:0.187012:-1.0625:-0.5:-0.375
1562065249032990:0:0:0:0:-1:-2:-1:0:-0.486816:-0.850098:0.184082:2.25:0.3125:-0.8125
1562065249070994:0:-2:-2:10:2:1:-2:0:-0.496094:-0.865723:0.182617:1.6875:0.5625:1.4375
1562065249130000:-1:1:-2:0:-1:-2:0:0:-0.503418:-0.863281:0.18457:1.875:0.25:2.0625
1562065249182005:-1:-1:-4:0:-2:-1:-2:0:-0.514648:-0.861816:0.193848:-1.375:-1.0625:0.125
1562065249231010:-1:0:-2:0:-4:-2:1:-1:-0.516602:-0.864746:0.192383:0.125:-0.875:-0.9375
1562065249273014:0:-1:-2:3:0:3:0:1:-0.508301:-0.867676:0.187988:-1.3125:-0.875:-1.6875
1562065249324019:0:1:0:-2:-3:-3:0:-1:-0.505859:-0.865234:0.1875:-1.6875:-1.625:-3.1875
1562065249370024:0:0:1:-3:0:-3:0:0:-0.495605:-0.866211:0.182617:-1.75:-2.3125:-5.0625
1562065249430030:-1:-2:-1:-1:-2:0:0:0:-0.492188:-0.874023:0.186035:-1.5625:-3.3125:-5.8125
1562065249482035:1:-1:-1:1:0:3:-1:0:-0.474609:-0.885742:0.18457:0.8125:-2.75:-3.5625
1562065249530040:-1:0:2:0:-1:-3:-3:-1:-0.475586:-0.887207:0.191406:1.6875:-2.0625:-0.75
1562065249573044:1:-1:-2:0:0:-1:-1:-1:-0.480469:-0.879883:0.188965:2.5625:-0.375:2
1562065249632050:0:0:-1:2:-1:0:-2:-1:-0.484863:-0.868164:0.202637:1.5:0.3125:1.625
1562065249671054:-1:0:-1:-2:-1:-1:-1:0:-0.501465:-0.871582:0.195801:-0.5625:0.0625:0.125
1562065249730060:-1:-1:0:1:3:-1:-1:-1:-0.501953:-0.874512:0.199219:0.0625:-0.375:-0.125
1562065249783065:-1:-2:-1:-2:-2:-1:0:0:-0.500488:-0.87793:0.195312:-0.625:-0.9375:0.25
1562065249831070:0:0:0:-2:2:5:2:0:-0.492676:-0.876465:0.188477:-0.75:-0.5625:-0.375
1562065249873074:0:-3:-2:1:0:0:0:0:-0.484863:-0.870117:0.195801:0.625:-0.1875:-1
1562065249932080:-1:0:1:5:-2:0:-2:-1:-0.487793:-0.876465:0.195801:-0.8125:-0.625:-2.1875
1562065249984085:0:-1:-2:-3:-1:-1:-1:-1:-0.482422:-0.875:0.19043:0.8125:-0.8125:-1.5
1562065250029090:0:-2:-5:-7:0:-1:0:-2:-0.478516:-0.877441:0.188477:-0.3125:-1.1875:-0.75
1562065250082095:-2:-2:-4:1:-2:-2:-2:-3:-0.483398:-0.873535:0.192871:0.5625:-1.3125:0.0625
1562065250136101:0:0:-2:-4:0:1:0:-1:-0.48584:-0.875977:0.198242:0.125:-0.9375:0.25
1562065250176105:0:0:3:1:-6:-4:-2:0:-0.48877:-0.875488:0.19873:-0.25:-0.625:-0.8125
1562065250232110:0:0:1:0:4:-1:0:1:-0.490234:-0.873047:0.197266:-0.375:-0.375:-0.375
1562065250284115:2:-1:0:1:2:0:0:-2:-0.489258:-0.878418:0.193848:-0.4375:-0.375:0.3125
1562065250332120:1:0:-1:1:-6:1:1:-1:-0.487793:-0.87207:0.196777:0.125:-0.1875:-0.0625
1562065250376125:-2:-2:0:6:4:-1:-2:0:-0.488281:-0.875488:0.192871:-0.9375:-0.5625:-0.9375
1562065250435130:-2:-1:-3:-3:6:2:1:1:-0.482422:-0.875:0.195801:-0.25:-0.625:-1.375
1562065250487136:-1:1:-2:1:-2:-2:-2:-2:-0.479492:-0.882812:0.193359:-0.1875:-1:-1.3125
1562065250532140:1:-1:1:-2:-3:1:0:1:-0.476562:-0.879395:0.197754:0.125:-1:-0.3125
1562065250584145:-1:1:-2:-1:1:0:0:-2:-0.482422:-0.875488:0.199707:0.4375:-0.8125:-0.0625
1562065250632150:-1:0:-3:0:-6:-3:-3:-1:-0.481445:-0.873535:0.205566:-0.25:-0.0625:0.4375
1562065250690156:6:-1:-5:33:-9:-2:1:0:-0.491211:-0.873047:0.194824:-0.9375:-0.5:0.0625
1562065250735160:47:12:-8:-27:-7:-7:-2:-2:-0.464355:-0.961426:0.208008:-11.75:1.5:8.4375
1562065250788166:-3:6:5:24:17:9:3:-11:-0.503906:-0.785645:0.15625:20.5625:-6.5:7
1562065250836171:-22:-1:9:-60:52:17:13:14:-0.495117:-0.894043:0.184082:4.8125:-0.125:3.5
1562065250893176:-6:3:-2:-16:-24:1:1:5:-0.486328:-0.874023:0.178223:35.875:-0.0625:2.0625
1562065250945181:22:-7:2:-41:29:-2:-3:0:-0.502441:-0.819336:0.303711:1.3125:-10.5:6.5625
1562065250990186:0:-3:-1:104:45:0:2:2:-0.463379:-0.874512:0.28125:-1.375:-1.1875:-0.5625
1562065251038191:0:-2:4:77:49:7:-1:-1:-0.522949:-0.84668:0.241699:-2.4375:0.5625:-2
1562065251096197:-10:-1:-8:5:38:5:3:2:-0.505371:-0.838867:0.218262:-0.1875:1.1875:-1.875
1562065251147202:-4:-3:-3:3:-7:-2:0:-1:-0.505371:-0.830078:0.244629:-20.0625:0.375:1.375
1562065251192206:-3:-2:-1:-5:-3:-16:-1:0:-0.491211:-0.880859:0.240234:-28.0625:4.6875:-0.625
1562065251240211:-1:1:0:-2:-3:2:4:2:-0.521484:-0.835938:0.130859:-23.4375:1.4375:-7.25
1562065251289216:-2:1:-3:-2:11:-2:-1:1:-0.487305:-0.894531:0.200195:12.3125:4.125:-9.0625
1562065251338221:0:-3:-1:18:0:2:0:-1:-0.463379:-0.871582:0.194824:8.25:0.8125:-5.5625
1562065251397227:-3:-1:-1:-10:-5:-1:-1:-1:-0.484375:-0.894531:0.208984:-0.1875:0.875:-2.125
1562065251448232:-1:-3:-5:-12:-5:0:-2:-2:-0.478516:-0.891113:0.203125:1.5625:4.125:0.3125
1562065251492236:0:-2:-2:9:2:-1:0:0:-0.483887:-0.876465:0.180664:-0.25:1.4375:1.5
1562065251540241:1:0:1:20:7:6:2:0:-0.493164:-0.867188:0.193359:1.5625:0.6875:2.125
1562065251600247:-2:-1:-5:-9:0:-4:-2:-2:-0.492676:-0.868652:0.205566:1.625:-0.1875:0.875
1562065251650252:-1:0:0:2:2:-2:-1:-1:-0.499512:-0.868164:0.203613:-0.75:-0.4375:-0.25
1562065251697257:0:0:-1:-3:1:2:0:-1:-0.481934:-0.879395:0.196777:0.5:0.5625:0.75
1562065251748262:-1:-1:-2:-5:-4:-4:-1:-1:-0.482422:-0.873535:0.198242:-0.0625:1.375:1.375
1562065251802267:-2:-3:3:9:5:0:0:0:-0.494141:-0.87793:0.196777:-0.75:2.5:2.4375
1562065251851272:-2:-3:0:1:-2:-3:-2:-1:-0.496094:-0.872559:0.192871:-0.125:3:2.375
1562065251903277:0:1:3:0:0:0:1:1:-0.501465:-0.862305:0.1875:-0.125:2:0.625
1562065251949282:-1:-1:-2:-1:0:-1:0:0:-0.496582:-0.862305:0.188477:0:0.9375:-1.3125
1562065251997287:-1:-1:-3:-5:7:0:-3:0:-0.495605:-0.870605:0.18457:-0.875:-1.625:-3.125
1562065252042291:-1:-1:-1:-2:0:1:-2:0:-0.487793:-0.881348:0.188965:-0.9375:-2.5:-3.25
1562065252102297:-1:-1:1:1:-1:-1:0:0:-0.485352:-0.871582:0.199707:-1.5:-2.0625:-1.6875
1562065252151302:0:1:-3:-2:1:1:0:3:-0.487305:-0.876465:0.202148:-0.5625:-0.9375:-0.1875
1562065252200307:-1:-2:1:-2:3:-1:-1:-2:-0.487305:-0.878418:0.194336:-0.6875:1.625:1.0625
1562065252249312:-2:0:1:-4:-3:-4:-4:-1:-0.491211:-0.875488:0.187988:0.1875:2:1.375
1562065252301317:0:0:1:0:-14:-4:2:0:-0.499512:-0.869629:0.189941:-0.625:1.625:0.5
1562065252355322:0:0:-3:-3:9:3:2:1:-0.497559:-0.869629:0.189453:-2.1875:0.5:-0.4375
1562065252403327:0:-2:-3:4:-5:0:-1:-1:-0.485352:-0.874023:0.188965:-0.5:0.4375:-0.375
1562065252452332:-1:-2:-1:-6:-14:-3:0:-1:-0.480469:-0.881348:0.190918:0.25:0.8125:0.75
1562065252500337:-2:-1:-6:-11:-2:5:0:-3:-0.483398:-0.875488:0.192871:-1:1.8125:2.25
1562065252549342:-2:-4:-4:-3:4:-1:-1:-2:-0.507324:-0.862305:0.171875:-2.75:0.5625:2.5625
1562065252609348:-1:-1:-3:0:4:6:1:0:-0.495605:-0.869141:0.178223:-0.875:0.1875:0.6875
1562065252661353:-1:0:0:4:-2:-3:0:0:-0.501465:-0.879395:0.186523:-1.125:-2.75:-0.5
1562065252703357:1:-2:-2:-1:4:3:2:1:-0.500977:-0.881348:0.178223:-0.3125:-1.5:-0.8125
1562065252762363:1:-4:0:1:-8:-2:-2:-2:-0.505371:-0.870605:0.190918:0.6875:-1.3125:-1.5
1562065252812368:0:0:-2:-4:-2:-6:-2:0:-0.507812:-0.871582:0.193848:0.5625:-1.125:-1.8125
1562065252860373:0:1:4:2:0:1:-2:0:-0.483887:-0.873535:0.182129:1.0625:-0.875:-2.6875
1562065252902377:0:-1:-2:-2:-2:2:-1:0:-0.470215:-0.875488:0.179199:0.9375:-1:-3.125
1562065252962383:-1:1:1:-1:2:0:-1:-3:-0.478516:-0.877441:0.189941:2.125:-1.75:-2.9375
1562065253015388:0:-2:-1:-1:-2:-3:-3:-2:-0.47998:-0.883301:0.19873:1.3125:-2.9375:-2.125
1562065253063393:-2:1:1:-2:-2:-1:1:-2:-0.48584:-0.875977:0.197266:1.1875:-3.125:0.0625
1562065253112398:0:0:1:5:3:-1:-2:-3:-0.485352:-0.881836:0.207031:0.8125:-2.5:0.875
1562065253165403:0:-2:1:6:2:1:0:0:-0.496094:-0.874023:0.208984:0.8125:-0.4375:1.0625
1562065253219409:1:-1:-3:-6:-14:1:1:0:-0.494141:-0.869141:0.199707:-0.0625:1.3125:-0.0625
1562065253263413:-1:-1:4:1:1:1:0:0:-0.490234:-0.869629:0.197754:0:1.5:-1.3125
1562065253315418:0:-1:0:2:-1:-3:1:-1:-0.476074:-0.872559:0.203125:0.3125:0.75:-1.8125
1562065253363423:-1:-1:-3:3:1:0:-1:0:-0.468262:-0.884277:0.196289:-0.4375:0.125:-1.0625
1562065253422429:-2:-2:-1:-6:-3:-3:-2:-2:-0.474121:-0.876465:0.190918:-0.4375:-0.375:0.4375
1562065253471434:1:0:3:-1:-1:-4:-1:-1:-0.480469:-0.880371:0.194336:-0.75:-0.0625:1.125
1562065253523439:-1:-1:0:3:4:-3:-6:-3:-0.491699:-0.875488:0.202637:-0.625:0.125:1.0625
1562065253562443:0:-1:0:1:-2:1:-2:-1:-0.496582:-0.874512:0.197266:-0.375:0.4375:0.625
1562065253622449:0:0:2:5:4:-3:-2:-2:-0.496582:-0.875:0.199219:-0.5625:0.875:0.75
1562065253675454:0:-1:-2:1:6:-4:-1:-1:-0.495117:-0.871582:0.202148:-1.625:1.1875:0.4375
1562065253722459:-1:0:-1:2:-3:1:2:2:-0.48584:-0.870605:0.191406:-0.5625:1.6875:-1
1562065253771464:-2:-2:-1:10:10:2:-2:-1:-0.479492:-0.875:0.192383:-1.375:1:-1.6875
1562065253824469:1:0:1:-1:1:4:2:1:-0.477051:-0.878418:0.187012:0:1.1875:-1.25
1562065253862473:-2:-2:1:1:-1:-1:0:-2:-0.476562:-0.879883:0.192383:-0.3125:1.25:-0.5
1562065253922479:-1:-3:0:-3:-3:-2:-1:-1:-0.483887:-0.882324:0.183594:-0.0625:0.625:0.75
1562065253944481:0:1:2:2:1:-5:-3:-2:-0.491699:-0.883301:0.193359:0.25:0.6875:1.375
1562065254026490:0:0:-1:2:3:-2:1:-1:-0.500977:-0.877441:0.196777:-0.6875:1.75:1.9375
1562065254064493:-2:-1:-2:-1:3:-1:0:0:-0.491211:-0.872559:0.188965:-0.4375:2.3125:1.625
1562065254124499:-1:-1:-2:4:0:-3:-1:0:-0.495605:-0.871094:0.181641:-0.625:2.75:0.6875
1562065254178505:-1:-3:1:16:2:0:0:-2:-0.488281:-0.87207:0.181152:-0.75:1.8125:0
1562065254228510:-1:-1:-1:7:5:-1:-1:1:-0.484375:-0.874512:0.180664:0.375:-0.3125:0.4375
1562065254275514:-1:-2:-1:5:1:2:1:-1:-0.48291:-0.879395:0.187012:-0.1875:0.25:0.25
1562065254328520:1:-2:-3:-5:-10:-2:0:0:-0.490234:-0.87793:0.186035:0.0625:-0.5625:1.0625
1562065254380525:-1:1:-1:-8:-4:-3:-2:-2:-0.499023:-0.87207:0.188477:0.5625:0.5625:2.0625
1562065254424529:-2:-3:-3:-1:2:1:-1:-2:-0.505859:-0.868652:0.18457:0.25:0.5625:2
1562065254478535:-2:0:-2:-1:0:1:-1:0:-0.500977:-0.869629:0.185547:0.5625:0.625:2.4375
1562065254525539:0:1:0:-1:-3:-3:-2:-1:-0.500977:-0.87207:0.183594:-0.25:0.375:2
1562065254583545:0:0:-2:-4:4:1:1:1:-0.503418:-0.861816:0.187012:0.75:0.125:0.875
1562065254625549:-1:-2:-1:-1:-2:-2:0:-2:-0.501465:-0.866211:0.183105:-0.6875:-1.1875:-1.0625
1562065254664553:0:0:0:-4:0:-1:-2:-3:-0.497559:-0.870117:0.186035:0.1875:-1.3125:-0.9375
1562065254724559:0:0:0:-2:3:1:2:1:-0.492188:-0.878418:0.188965:0.25:-0.9375:-0.125
1562065254777565:0:-1:0:-4:3:3:1:2:-0.501953:-0.867676:0.191895:-0.4375:-0.375:0.6875
1562065254825569:-1:2:2:-4:0:0:-2:-1:-0.502441:-0.863281:0.186523:0.5625:0.125:0.875
1562065254866574:0:0:-2:1:-1:0:-3:0:-0.498047:-0.864258:0.189453:-0.1875:0.5:0.125
1562065254927580:0:0:0:1:-2:0:0:0:-0.501953:-0.867188:0.181641:0.1875:0.125:-0.625
1562065254981585:-3:-4:-5:2:2:1:-3:-2:-0.505859:-0.864746:0.189453:-0.1875:-1.125:-0.5625
1562065255024589:1:-3:-5:0:4:1:0:-3:-0.5:-0.875:0.189453:-0.6875:-1.25:-0.8125
1562065255084595:0:1:1:-5:-1:-3:-1:0:-0.493652:-0.870605:0.191895:-0.25:-0.8125:-0.125
1562065255107598:-2:-2:0:-2:-5:1:1:-1:-0.499512:-0.869629:0.193848:0.125:-0.75:0.0625
1562065255182605:0:-2:1:0:-22:-4:-1:1:-0.502441:-0.870117:0.19043:0.125:0.25:0.375
1562065255227610:0:1:2:-1:6:0:1:-2:-0.502441:-0.866211:0.192871:-0.3125:0.375:0.375
1562065255280615:0:-1:-1:-1:6:0:-2:-1:-0.49707:-0.868652:0.186035:-0.125:0.4375:0.5
1562065255331620:-1:-2:-2:7:1:-5:-3:-2:-0.506348:-0.871582:0.192871:0.125:0.125:0.5625
1562065255387626:1:1:1:-4:1:3:2:1:-0.49707:-0.868164:0.185547:-0.0625:0.0625:-0.25
1562065255437631:5:1:0:7:2:1:-1:-1:-0.501465:-0.865723:0.19043:0.1875:0.0625:-0.5
1562065255488636:-35:-8:7:-1:19:7:1:3:-0.504395:-0.885254:0.181641:-0.9375:0:0.1875
1562065255527640:24:2:-12:-43:0:-4:-3:-3:-0.493652:-0.924805:0.173828:-2.5625:-2.75:7.1875
1562065255588646:-34:4:11:26:27:16:8:3:-0.517578:-0.805664:0.215332:12.6875:0.5:1.6875
1562065255640651:-11:2:-17:-4:-31:-9:-2:-1:-0.512695:-0.858887:0.192871:15.4375:1.6875:-2.4375
1562065255687656:-14:4:-2:-3:26:9:3:-7:-0.538086:-0.838867:0.22168:13.8125:-14.375:0
1562065255729660:21:7:-11:-73:-35:-4:-4:-2:-0.466309:-0.877441:0.27832:-5.375:-6.9375:4.25
1562065255791666:20:-5:-6:24:12:-11:-9:-8:-0.498535:-0.851074:0.222656:-4.375:0.3125:2.5625
1562065255842671:-24:-2:-4:29:45:-3:-6:-27:-0.522949:-0.853516:0.228516:-0.875:2.0625:-0.375
1562065255886676:-6:1:-10:-85:18:-4:0:4:-0.510254:-0.852051:0.21582:0.0625:-0.8125:0.625
1562065255940681:25:4:8:12:-19:8:4:11:-0.514648:-0.847656:0.23877:2:-1.0625:1.8125
1562065255990686:-16:-17:-9:25:25:1:-1:0:-0.495117:-0.852539:0.240234:0.625:-0.25:2.0625
1562065256029690:80:-10:-2:46:4:0:0:6:-0.510254:-0.847168:0.230469:-1.6875:0.375:1.4375
1562065256089696:-23:-3:11:73:-58:0:0:-2:-0.505859:-0.85498:0.240234:0.5625:0.4375:0.0625
1562065256143701:-2:0:5:11:15:-11:-3:-1:-0.501953:-0.842285:0.233887:-13.625:1.5:2.375
1562065256190706:1:0:-6:-6:50:-15:-3:0:-0.523926:-0.821289:0.233887:-38.1875:2.9375:1.125
1562065256240711:-1:0:0:5:9:8:0:0:-0.528809:-0.810059:0.160645:-44.375:3.5:-3.875
1562065256290716:-1:-1:-1:-8:2:10:1:-2:-0.519043:-0.898438:0.182129:13:-0.375:-7.6875
1562065256345721:-1:-3:-5:-2:-8:-3:-1:-1:-0.475098:-0.888672:0.189453:0.4375:3.6875:-8.5
1562065256389726:-2:-3:0:0:-1:-3:-3:-2:-0.489746:-0.89502:0.18457:4.5625:4.8125:-3.125
1562065256449732:1:-1:0:4:0:1:0:0:-0.493652:-0.875:0.18457:0.9375:5.375:1.75
1562065256490736:0:1:1:-6:-1:0:1:-1:-0.503906:-0.872559:0.172363:0.6875:5.25:2.375
1562065256539741:0:1:3:1:5:0:0:0:-0.504883:-0.866211:0.158691:0.5:1.3125:1.6875
1562065256600747:-2:-1:-1:1:-3:-2:-2:-1:-0.500977:-0.865723:0.177734:0.875:-1.125:0.6875
1562065256644751:0:1:0:-4:-4:-2:-1:-1:-0.502441:-0.868652:0.177734:0.4375:-1.875:-0.75
1562065256689756:0:-2:0:-10:8:2:-1:-2:-0.506348:-0.870117:0.185547:0.5:-1.6875:-0.5625
1562065256749762:0:-1:0:-2:1:-1:2:-2:-0.506348:-0.867676:0.181152:0.5:-0.75:-0.75
1562065256802767:-2:-1:-1:-7:-6:2:-2:-1:-0.510254:-0.868652:0.1875:0.375:-0.25:-1.0625
1562065256832770:0:-1:3:0:5:0:-2:1:-0.505859:-0.866699:0.182129:-0.8125:-0.625:-1.3125
1562065256891776:0:0:-2:-12:1:2:-2:0:-0.503418:-0.871094:0.183594:-1.3125:-0.6875:-1.75
1562065256951782:-1:0:0:-1:2:0:0:0:-0.490723:-0.876465:0.176758:-1.125:-0.625:-1.6875
1562065256989786:-1:-1:2:2:0:1:-1:-2:-0.491699:-0.874512:0.17627:-1.125:-0.625:-1.875
1562065257050792:-2:-1:-2:1:-5:-5:1:-1:-0.492188:-0.874023:0.178711:-1.3125:-0.125:-1.1875
1562065257103797:0:-3:-5:-12:-8:-4:-1:-2:-0.487793:-0.87793:0.179688:0.5625:0.0625:-0.375
1562065257155802:-1:-3:-1:0:-2:-1:-2:-1:-0.500488:-0.878418:0.180176:-0.875:0:0.3125
1562065257192806:0:1:-4:-11:-1:-4:-3:-1:-0.501465:-0.874023:0.18457:0.3125:-0.25:0.9375
1562065257251812:0:-1:0:3:-2:-2:-1:0:-0.502441:-0.867188:0.181152:-0.125:-0.0625:0.625
1562065257304817:-3:-2:-3:1:3:1:0:-1:-0.5:-0.875488:0.185547:-0.125:-0.0625:-0.3125
1562065257351822:-1:-2:-2:-4:0:1:0:0:-0.496582:-0.86377:0.18457:0.0625:-0.125:-1.125
1562065257401827:-1:0:0:-2:-4:-5:-3:-2:-0.490234:-0.87793:0.17334:-0.625:0.375:-1.5625
1562065257453832:-1:-2:-4:0:3:-3:-2:0:-0.494629:-0.872559:0.180176:-0.0625:-0.25:-0.9375
1562065257508838:0:1:0:1:-8:4:1:-1:-0.492676:-0.875977:0.176758:-0.125:-0.0625:-0.5625
1562065257552842:1:-4:-3:2:8:3:0:0:-0.489258:-0.875977:0.178223:0.1875:-0.3125:-0.375
1562065257605847:-2:-2:-1:0:2:-2:-1:0:-0.493652:-0.877441:0.180664:0.5:0.125:-0.6875
1562065257653852:-2:0:-1:-2:-6:-1:1:0:-0.49707:-0.876465:0.179688:0.1875:0.1875:-0.5625
1562065257710858:1:0:-1:-6:-2:-1:-1:0:-0.49707:-0.869629:0.183594:0.9375:-0.0625:-0.8125
1562065257753862:-1:0:0:0:7:2:0:-1:-0.484863:-0.881348:0.183105:0.125:0.125:-1.375
1562065257814868:0:-1:3:3:3:4:1:0:-0.490723:-0.871582:0.184082:-0.8125:0.375:-0.625
1562065257851872:-3:-3:1:1:6:3:2:0:-0.482422:-0.875:0.186035:-0.25:0.6875:0.25
1562065257911878:-1:-1:0:1:3:-3:-1:-1:-0.484375:-0.872559:0.182617:-0.125:1.0625:0.5
1562065257953882:0:-2:0:-2:1:0:-1:-2:-0.494629:-0.882324:0.180176:-0.25:1.3125:1
1562065258013888:-2:1:-3:-3:0:-1:0:0:-0.501465:-0.874023:0.181641:0:1:1.875
1562065258055892:-2:-1:-3:2:-2:-2:0:-1:-0.502441:-0.874512:0.177246:0.625:0.375:0.5
1562065258114898:-1:0:-1:2:-1:-3:-1:-1:-0.505859:-0.867676:0.172852:0.3125:-0.625:-0.75
1562065258166904:-2:0:0:0:6:0:-1:1:-0.493652:-0.875488:0.179199:0.25:-1.6875:-2.0625
1562065258211908:-1:1:3:10:5:1:1:0:-0.48584:-0.874512:0.184082:-0.0625:-2:-2.375
1562065258267914:0:0:2:0:0:-1:5:-1:-0.483887:-0.875977:0.185059:0.5625:-1.5:-2.0625
1562065258312918:-1:-1:-1:0:-5:-3:-3:0:-0.481934:-0.878906:0.181152:-0.25:-1.125:-1.375
1562065258362923:0:-1:-3:-4:6:0:0:-1:-0.484375:-0.880371:0.182129:0.8125:-0.75:0.3125
1562065258418929:0:-1:-3:1:-1:-5:-1:-1:-0.484375:-0.880859:0.1875:0.375:-0.75:1.0625
1562065258469934:0:-1:-1:-1:-7:4:-1:-1:-0.494629:-0.879395:0.188965:-0.1875:-0.3125:0.875
1562065258512938:0:-1:-4:-1:-3:-3:0:-1:-0.491211:-0.876953:0.191895:0.0625:-0.125:0.8125
1562065258556943:0:0:2:1:1:0:-1:-1:-0.510254:-0.868164:0.184082:-0.1875:0.25:-0.4375
1562065258617949:-1:0:-1:-3:-3:1:1:-3:-0.48877:-0.876953:0.172852:-1.5625:1.25:-2.625
1562065258654952:-2:-2:1:-3:5:2:1:1:-0.486816:-0.867676:0.183105:0.75:0.625:-3.6875
1562065258713958:1:0:2:3:4:0:-1:-2:-0.465332:-0.888672:0.185059:0.0625:-1.5:-4.5625
1562065258755962:0:1:2:2:4:-1:0:0:-0.469727:-0.900879:0.183105:-0.625:-1.75:-0.625
1562065258814968:1:0:0:1:-1:-1:-2:-2:-0.475586:-0.891113:0.181152:1:-0.5:2.8125
1562065258856973:0:1:0:-2:-1:-4:-3:-2:-0.50293:-0.867676:0.192383:0.125:0.6875:3
1562065258916979:-2:-3:-4:0:1:0:-1:-1:-0.500488:-0.870605:0.185059:-0.3125:0.6875:1.1875
1562065258969984:0:-2:-1:-3:4:4:-2:0:-0.484375:-0.874512:0.181641:0.4375:0.375:-1.5
1562065259014988:0:-3:-2:-4:-4:-4:-1:0:-0.486816:-0.881836:0.185059:0.75:-0.4375:-2.4375
1562065259070994:1:2:0:-2:3:0:-1:-1:-0.479492:-0.878906:0.187012:0.25:-2.0625:-2.1875
1562065259114998:-2:-2:-1:-2:16:5:-3:-1:-0.476562:-0.881348:0.191406:0.375:-2.375:-1.25
1562065259173004:1:1:0:0:-2:-4:-3:0:-0.475098:-0.882324:0.183105:0.1875:-1.5625:-0.125
1562065259217009:0:0:-4:-7:-6:-3:-2:-1:-0.475586:-0.880859:0.188477:-0.0625:-0.5:0.5625
1562065259277015:-2:-1:-1:-4:-2:-2:-2:-1:-0.483887:-0.878906:0.189453:0.125:-0.125:1.125
1562065259315018:-2:-3:1:11:-5:-3:0:1:-0.48877:-0.876953:0.196289:-0.1875:0.375:1.4375
1562065259374024:0:-1:2:5:-3:-1:0:-1:-0.489258:-0.873535:0.192383:0.4375:0.5625:1.125
1562065259420029:-1:0:-1:-1:4:-1:-1:-1:-0.483887:-0.874512:0.187012:0.375:0.4375:0
1562065259472034:1:-2:1:-1:-8:-1:1:0:-0.486328:-0.870117:0.190918:-0.6875:-0.0625:-1.375
1562065259520039:2:1:5:-1:-4:-2:-1:0:-0.476074:-0.878418:0.19043:0.5625:-0.25:-0.9375
1562065259579045:-1:1:-1:1:9:4:1:0:-0.476074:-0.885742:0.187012:-0.5625:-0.1875:-0.1875
1562065259618049:-2:-1:-1:0:-1:0:-1:0:-0.480957:-0.878906:0.191895:0.375:0.5:1.125
1562065259678055:1:-1:-1:-3:-5:-1:-2:1:-0.48291:-0.877441:0.181641:0.5625:0.8125:1.375
1562065259720059:-1:0:-1:1:3:2:0:0:-0.486328:-0.87793:0.194336:-0.375:0.5625:0.5625
1562065259779065:0:0:-3:3:3:-1:1:-1:-0.490234:-0.876953:0.19043:0.4375:0.5625:0.5
1562065259818069:0:-1:-1:-3:-6:-5:-2:-3:-0.48584:-0.874512:0.194336:-0.125:0.3125:0.125
1562065259877075:0:0:-2:-1:3:1:0:0:-0.489746:-0.875488:0.198242:0.3125:0.25:-0.5
1562065259929080:-1:0:-2:-2:1:1:0:0:-0.484375:-0.878418:0.191895:0:-0.125:-0.75
1562065259978085:1:-1:-4:-3:-3:-2:-1:0:-0.483887:-0.87793:0.191895:0.1875:0.25:-0.3125
1562065260020089:0:-2:-2:-2:3:-1:0:2:-0.480469:-0.874512:0.186035:0.1875:0.1875:-0.1875
1562065260079095:0:-1:-1:-2:-3:-2:0:-2:-0.484375:-0.880859:0.192871:0.0625:0.25:-0.125
1562065260132100:-1:0:2:-2:-3:0:1:0:-0.489258:-0.880859:0.191895:0.375:0.25:0.125
1562065260177105:-1:0:0:-2:-3:0:0:-1:-0.489258:-0.876953:0.193359:0.0625:0.125:0.25
1562065260230110:-1:-1:0:-1:-14:-4:0:1:-0.487793:-0.871582:0.193848:-0.125:0.125:0
1562065260278115:0:-1:-2:-2:-3:1:0:0:-0.490234:-0.875:0.197266:-0.0625:-0.0625:-0.4375
1562065260335120:-1:-2:1:-3:-1:0:-1:-2:-0.489746:-0.878906:0.186523:-0.0625:-0.5625:-0.75
1562065260380125:-1:1:0:0:2:2:1:-1:-0.48584:-0.874023:0.189941:0:-0.75:-1.375
1562065260433130:0:0:1:1:-2:-3:0:1:-0.481934:-0.877441:0.18457:-1.1875:-1.125:-1.8125
1562065260480135:1:0:-2:0:-2:-1:0:0:-0.475586:-0.879395:0.187012:-0.5:-1.0625:-1.1875
1562065260537141:-1:-1:-2:-3:3:-1:1:0:-0.466797:-0.890137:0.192383:-0.875:-0.875:-0.625
1562065260583145:-1:-1:-3:-2:-4:-2:2:1:-0.473145:-0.884277:0.190918:0.125:-0.4375:0.8125
1562065260635150:-2:-1:-1:2:-6:-2:-2:-2:-0.486816:-0.87793:0.191406:-0.5625:0.1875:3.0625
1562065260680155:0:1:0:0:3:1:3:-1:-0.494141:-0.876465:0.196289:-0.375:-0.4375:3.1875
1562065260740161:0:-2:-2:-1:-5:-4:-2:0:-0.502441:-0.870605:0.183594:-0.9375:-0.75:2.25
1562065260780165:0:-1:-2:-2:3:2:1:-2:-0.490234:-0.869629:0.19043:-1.25:-0.8125:0.0625
1562065260840171:0:-1:2:-3:-7:-2:-2:-1:-0.481445:-0.877441:0.191895:-1.4375:-0.625:-1.5
1562065260882175:0:-2:-3:5:-1:0:0:0:-0.477539:-0.876465:0.186035:-0.75:-0.5625:-2.875
1562065260935180:0:-1:-5:-2:-11:-3:-4:0:-0.466309:-0.888184:0.183594:-0.6875:-0.625:-2.25
1562065260980185:-1:0:0:-4:0:0:3:1:-0.474609:-0.884277:0.188477:0.375:-0.75:0.1875
1562065261040191:-1:1:3:1:1:3:0:-1:-0.48877:-0.881348:0.188965:0.5625:-0.75:1.375
1562065261093196:0:-1:2:-5:5:1:0:0:-0.498047:-0.871582:0.193848:0.6875:-0.75:1.1875
1562065261141201:-1:-1:-3:0:-2:-3:-2:-2:-0.496582:-0.872559:0.188477:0.25:-0.25:-0.9375
1562065261182205:-1:1:-1:1:1:3:1:2:-0.487305:-0.873535:0.190918:-0.9375:-0.125:-1.9375
1562065261242211:-1:-2:-4:-3:-14:-3:-2:-1:-0.480469:-0.877441:0.189453:0.5625:0.3125:-2.625
1562065261279215:-3:-3:1:6:3:0:1:-1:-0.472168:-0.887695:0.185547:-0.75:-0.3125:-3.0625
1562065261343221:0:1:3:-9:-8:-2:0:-2:-0.468262:-0.878906:0.19043:0.5625:-0.5625:-1.9375
1562065261392226:0:-1:-3:-1:7:1:-1:-2:-0.471191:-0.888184:0.188477:-0.0625:-0.8125:-0.3125
1562065261437231:-3:-1:1:1:-5:-5:-4:-2:-0.470215:-0.878906:0.194824:1.125:-0.5625:1
1562065261482235:-2:0:-1:-4:13:6:2:1:-0.476562:-0.882324:0.196777:1.1875:0.125:1.3125
1562065261543241:-1:-1:1:1:-1:-5:1:-2:-0.488281:-0.875:0.197754:-0.0625:0.25:1
1562065261595246:0:0:0:1:4:-3:-2:-1:-0.487793:-0.876953:0.195801:0.25:0.4375:0.625
1562065261644251:-1:-2:-4:-3:-2:-3:0:0:-0.485352:-0.876465:0.19873:-0.25:0.1875:-0.25
1562065261685255:1:-1:-2:0:3:-2:-2:-2:-0.478516:-0.874023:0.1875:0.5:-0.0625:-1
1562065261746261:-1:-2:-2:2:1:0:-3:-2:-0.474609:-0.882812:0.19043:-0.125:-0.25:-1.25
1562065261782265:0:-3:-3:-5:8:3:-2:0:-0.472168:-0.878418:0.191406:0.125:-0.1875:-1.3125
1562065261842271:-1:0:2:-2:-2:0:-1:-2:-0.475586:-0.880371:0.191406:0.0625:-0.0625:-1.25
1562065261895276:-2:0:1:1:-1:3:5:0:-0.474121:-0.880859:0.192871:0.5625:0.0625:-0.375
1562065261943281:0:-1:2:4:5:-2:-3:0:-0.481445:-0.883301:0.192871:0.375:-0.25:0.625
1562065262000287:-1:-1:-2:-5:-2:0:0:0:-0.482422:-0.875977:0.199219:0.0625:-0.3125:0.6875
1562065262045291:0:0:0:-2:1:-1:0:-2:-0.47998:-0.875977:0.19873:0.25:-0.125:0.1875
1562065262097297:-1:0:-3:3:8:-1:0:-1:-0.476562:-0.879883:0.202148:-0.0625:0:0
1562065262142301:-1:0:-2:-4:0:2:1:2:-0.479004:-0.879395:0.197754:-0.0625:0:0.0625
1562065262194306:1:0:-1:-1:-4:-2:-2:-2:-0.475586:-0.88623:0.195312:0.5625:0.375:0.0625
1562065262243311:0:-1:0:0:-2:-3:-2:1:-0.480957:-0.879395:0.193359:-0.3125:0.0625:-0.125
1562065262299317:-2:-1:-2:-1:-1:1:2:2:-0.475098:-0.883301:0.195312:0:-0.375:0.0625
1562065262336320:-1:-1:0:0:5:3:-1:1:-0.479492:-0.879883:0.187988:0.125:-0.1875:0.125
1562065262382325:-1:0:3:1:-1:-2:-1:-3:-0.474121:-0.884766:0.197266:0.875:-0.1875:0.0625
1562065262445331:1:-3:-1:-3:0:0:1:0:-0.480957:-0.881348:0.198242:-0.125:-0.25:0.375
1562065262505337:-2:-1:-1:0:3:0:0:-2:-0.480469:-0.874023:0.20166:0.3125:-0.3125:0.125
1562065262547342:0:-1:-1:-3:0:1:-1:-1:-0.477051:-0.882812:0.196777:0.375:-0.1875:0
1562065262600347:-2:1:1:1:1:3:1:-1:-0.480957:-0.874512:0.194824:-0.125:0:0.0625
1562065262645351:-2:0:-5:-7:-4:-2:-2:-1:-0.478516:-0.882812:0.196289:0.1875:0.125:-0.0625
1562065262705357:-2:0:-3:-3:-11:-2:-1:-1:-0.481445:-0.878906:0.19873:0.1875:0.3125:-0.375
1562065262757363:-2:-1:-1:-3:-3:1:-1:-2:-0.475586:-0.883789:0.19873:-0.375:-0.0625:-0.25
1562065262805367:-1:-1:1:-1:2:2:0:1:-0.479004:-0.872559:0.192871:-0.1875:-0.125:0.0625
1562065262847372:2:-1:0:1:3:5:2:1:-0.477539:-0.880859:0.197754:0.125:-0.0625:0.25
1562065262911378:1:-1:-2:0:-7:-1:1:-2:-0.475586:-0.874512:0.199707:-0.375:-0.375:0.0625
1562065262962383:4:-1:0:14:-1:0:-2:0:-0.483887:-0.880371:0.195801:0.1875:-0.4375:0
1562065263005387:2:2:-1:-10:-1:-4:-3:-1:-0.470215:-0.902344:0.182617:-3.8125:0.25:1.375
1562065263057393:1:0:2:40:-2:-3:-1:-3:-0.484375:-0.854492:0.200684:7.125:-1:3
1562065263105397:-21:-14:-2:43:-3:-1:-2:-4:-0.472168:-0.900879:0.192871:3.625:-0.0625:1.25
1562065263165403:-1:-7:-1:10:17:5:2:4:-0.484375:-0.86084:0.221191:12.0625:-0.25:2
1562065263199407:36:2:9:90:45:-1:-2:-4:-0.48877:-0.888672:0.192383:0.6875:-3.4375:1.9375
1562065263259413:14:5:2:-34:-9:4:3:2:-0.496582:-0.84082:0.22168:3.125:-1:0.375
1562065263304417:23:0:1:30:17:4:2:1:-0.494629:-0.852051:0.223145:13.9375:2.6875:-1.25
1562065263351422:-18:11:-5:-28:-20:3:0:-4:-0.498047:-0.861816:0.208496:6.5:-2.5625:0.4375
1562065263410428:-31:2:4:36:15:0:0:-3:-0.491699:-0.837402:0.251953:6.375:-6.125:1.8125
1562065263462433:94:14:17:16:-40:3:4:8:-0.469238:-0.891113:0.280762:-3.3125:-3.25:1.375
1562065263508438:-56:-1:-2:3:-6:3:0:-6:-0.498535:-0.847656:0.231934:-2.4375:-2.75:2.8125
1562065263560443:-14:6:6:50:18:-5:-1:-4:-0.483398:-0.881836:0.258301:0.6875:1.9375:3.0625
1562065263608448:-9:-6:-6:-28:-17:0:2:3:-0.503906:-0.850586:0.240723:-2.6875:-1.3125:3.6875
1562065263665453:-91:-14:0:7:22:0:-1:-9:-0.502441:-0.868652:0.244629:0.8125:2.5:2.3125
1562065263710458:99:-2:-9:-24:20:-14:-8:-5:-0.495605:-0.843262:0.233887:-1.125:-3.5:1.875
1562065263762463:-23:4:2:-48:-3:11:3:2:-0.492676:-0.866211:0.253906:-1.6875:-0.125:-0.125
1562065263807468:-18:3:0:32:-13:-14:-3:-3:-0.48877:-0.858398:0.242676:-13.9375:0.1875:2
1562065263867474:6:0:-2:-1:5:-1:7:13:-0.499512:-0.859375:0.217773:-47:3.375:-1.4375
1562065263920479:3:0:7:5:-32:8:2:11:-0.49707:-0.883789:0.161621:-14.6875:5.5625:-7.75
1562065263970484:-6:-1:-2:8:2:1:-2:-3:-0.525879:-0.882812:0.163086:3.4375:4.375:-10
1562065264011488:-1:0:-1:-1:-5:-2:2:2:-0.474609:-0.884277:0.196777:8.375:2.5625:-5.9375
1562065264070494:-4:-1:-3:-3:-8:-3:1:-3:-0.474121:-0.882324:0.194824:0:1.8125:-2.8125
1562065264122499:-1:-3:-2:14:1:1:-2:1:-0.484375:-0.885254:0.181641:2.4375:4.5625:-0.4375
1562065264167504:1:3:1:4:2:-2:-2:0:-0.480957:-0.887207:0.178223:-0.375:3.6875:1.0625
1562065264220509:-1:-6:-8:3:-2:0:0:-4:-0.484375:-0.875:0.17041:2.1875:2.4375:0.9375
1562065264272514:0:1:3:0:4:-4:0:-1:-0.493164:-0.876465:0.175293:0.125:-1.125:-0.0625
1562065264322519:-2:-4:-4:-13:-6:-1:1:-1:-0.488281:-0.873047:0.179199:0.6875:-2.375:-0.6875
1562065264370524:-1:1:5:1:-6:0:-3:-1:-0.484375:-0.876953:0.191406:-0.3125:-2.0625:-1.8125
1562065264423529:2:-1:-1:-1:-4:2:0:0:-0.481445:-0.881836:0.190918:-1.6875:-1.0625:-1.6875
1562065264472534:1:0:-1:-9:-3:-4:-1:0:-0.480469:-0.882324:0.187988:1.125:-0.125:-0.8125
1562065264528540:1:2:2:-10:3:1:2:1:-0.481445:-0.881348:0.187012:-0.3125:-0.4375:-1
1562065264573544:1:-1:0:1:2:0:0:0:-0.476562:-0.882812:0.1875:0.1875:-0.625:-1.1875
1562065264625549:0:-2:-2:1:6:3:1:0:-0.479492:-0.878906:0.1875:-0.5625:-0.5625:-1.3125
1562065264670554:0:-1:-1:2:0:-2:1:-2:-0.477539:-0.885742:0.19043:0:-0.375:-0.9375
1562065264722559:0:-1:-3:-4:-2:-2:-1:0:-0.475098:-0.884766:0.191895:0.0625:0.125:-0.375
1562065264777565:0:1:0:6:4:1:-3:0:-0.475098:-0.879883:0.186523:-0.375:0.5625:0
1562065264827570:-2:-1:-1:-3:-9:-1:-1:-1:-0.474121:-0.885742:0.185059:-0.1875:0.5625:0.25
1562065264873574:-1:-1:-2:1:-3:-1:-1:0:-0.479492:-0.882812:0.185547:-0.25:0.625:0.375
1562065264924579:-1:1:1:1:4:0:-1:1:-0.476074:-0.883301:0.185547:0.3125:0.5625:0.3125
1562065264973584:1:-2:0:13:1:-2:0:0:-0.482422:-0.881348:0.1875:-0.25:0.3125:-0.0625
1562065265022589:1:-1:1:-2:0:-2:-4:0:-0.483398:-0.881836:0.183105:-0.4375:0.25:-0.25
1562065265082595:-2:-1:2:-4:3:1:1:-1:-0.476562:-0.881348:0.187988:0.5:0.5:0
1562065265134600:-2:-1:-1:2:3:1:1:0:-0.483887:-0.87793:0.188965:-0.6875:0.1875:-0.25
1562065265175604:0:-1:-2:13:5:-2:-1:0:-0.474609:-0.876465:0.185059:0.9375:0.25:-0.125
1562065265233610:-2:-2:-1:-3:9:8:2:1:-0.477051:-0.88623:0.183594:-0.3125:-0.0625:-0.25
1562065265273614:0:-1:-1:2:3:0:-4:-1:-0.478516:-0.882812:0.187012:0:-0.125:0.0625
1562065265335620:-2:-1:0:1:-3:-1:-1:1:-0.47998:-0.876465:0.185059:0.4375:0.125:0.125
1562065265378625:-1:0:-2:-4:-1:0:2:0:-0.481934:-0.875977:0.185547:-0.25:0.125:-0.125
1562065265426629:0:-1:-1:-1:3:3:0:0:-0.478027:-0.881348:0.183594:0.5:0.3125:0.25
1562065265475634:-2:1:3:-10:-10:-2:-2:-1:-0.481934:-0.880859:0.186035:-0.0625:0.0625:-0.25
1562065265535640:0:-1:-4:0:9:2:0:1:-0.478516:-0.885254:0.18457:0.3125:-0.6875:-0.875
1562065265585645:-1:-1:0:-1:-3:-1:-1:0:-0.47998:-0.878906:0.190918:0.125:-0.875:-0.6875
1562065265636650:-1:0:-1:1:-12:-3:0:1:-0.47168:-0.882812:0.183105:0:-0.5:0
1562065265681655:0:-1:-1:0:1:-4:0:-1:-0.475586:-0.884766:0.186523:0.5:0.1875:0.8125
1562065265727660:0:-1:-3:1:-3:-1:-1:-2:-0.472656:-0.888672:0.193848:-0.125:0.8125:1.6875
1562065265787666:0:1:1:-2:-3:-2:-1:1:-0.481934:-0.880371:0.190918:0.375:1.4375:2.125
1562065265835670:0:0:-4:-2:6:-4:-3:-1:-0.483887:-0.875488:0.188965:0.125:1:2.3125
1562065265885675:0:-1:1:0:1:-2:0:-2:-0.48584:-0.876953:0.189941:0.375:0.9375:1.6875
1562065265936680:0:0:-1:-2:-3:1:0:1:-0.495117:-0.881836:0.190918:-0.125:0.5:1.1875
1562065265989686:1:-1:0:-3:-5:-2:-1:-1:-0.487793:-0.879395:0.17627:0.25:0.3125:0.25
1562065266038691:0:-1:-1:-1:-10:0:2:0:-0.490723:-0.87207:0.181641:-0.625:-0.4375:-0.75
1562065266083695:-1:-1:0:-1:2:1:-1:-1:-0.486328:-0.878906:0.182129:0.1875:-0.75:-1.3125
1562065266135700:-2:-1:0:4:-2:-1:-2:-1:-0.487305:-0.874512:0.187012:-0.3125:-1.0625:-1.6875
1562065266184705:-1:-1:1:-1:1:-1:-2:-2:-0.477051:-0.888672:0.182129:0.1875:-0.875:-1.5
1562065266243711:-1:1:0:-3:-2:1:-1:1:-0.481445:-0.877441:0.18457:-0.625:-0.75:-0.8125
1562065266278715:2:2:-1:-1:1:0:0:0:-0.478027:-0.879883:0.183105:0.5625:-0.0625:-0.6875
1562065266338721:-1:2:-2:1:3:-4:0:0:-0.482422:-0.880371:0.189941:0.25:-0.75:-1.25
1562065266387726:-1:-1:-1:-2:-3:0:0:2:-0.477051:-0.881836:0.19043:0.75:-1:-0.875
1562065266438731:-1:-2:-1:-2:-3:-1:-3:-3:-0.472168:-0.884277:0.19043:0.6875:-0.9375:-0.375
1562065266494736:-2:-4:-3:6:-4:-1:-2:0:-0.480469:-0.878906:0.198242:0.5:-0.75:0.125
1562065266537741:0:-1:0:2:5:-2:-1:-1:-0.476074:-0.876953:0.199219:-0.1875:-0.0625:1
1562065266597747:0:-3:0:1:7:4:1:1:-0.479004:-0.878418:0.195801:-0.0625:1.125:1.5625
1562065266637751:-3:0:1:-1:-5:-1:1:-1:-0.480469:-0.879883:0.192871:-0.5:1.375:1.9375
1562065266698757:0:-3:0:-2:-9:-2:2:1:-0.486328:-0.874023:0.185547:-0.75:2:1.625
1562065266747762:-1:0:-2:2:0:0:-3:0:-0.493652:-0.874512:0.186523:-0.125:1.75:1.1875
1562065266798767:-3:1:-2:-2:0:-3:-2:-2:-0.491211:-0.871582:0.183594:-0.875:0.75:0.3125
1562065266840771:-1:-1:1:4:4:0:0:-2:-0.489258:-0.873535:0.179688:-0.25:0.3125:0
1562065266899777:0:0:0:1:-5:-2:-2:-1:-0.48291:-0.879883:0.175781:-0.3125:-0.0625:-0.625
1562065266937781:0:-1:-2:-1:-3:0:-2:0:-0.484375:-0.874023:0.190918:0.5625:0.25:0.0625
1562065266998787:-1:-1:0:-3:-10:-3:-1:-1:-0.492188:-0.881836:0.185059:-1:-0.3125:-0.625
1562065267047792:0:1:2:-2:5:-1:-4:-1:-0.481934:-0.874023:0.182617:1.1875:-0.25:-1
1562065267099797:-1:-1:-2:-1:0:0:0:-1:-0.482422:-0.888672:0.182129:0.625:-0.625:-0.875
1562065267148802:0:-1:0:0:-5:-2:-1:-1:-0.487793:-0.877441:0.191895:1.0625:-0.375:0.125
1562065267190806:0:0:-1:0:-3:-2:1:-1:-0.487305:-0.873535:0.194824:0.6875:-0.125:1.1875
1562065267240811:-2:1:-3:-3:5:2:1:-1:-0.487793:-0.874023:0.193848:0.1875:0.125:0.4375
1562065267296816:1:-1:1:-3:-2:0:1:-1:-0.489258:-0.87207:0.191895:0.5625:0.0625:-0.625
1562065267340821:-1:0:-3:-6:3:3:2:0:-0.493652:-0.876953:0.192871:-0.1875:-0.1875:-1.1875
1562065267399827:0:-2:-1:3:4:-1:0:0:-0.48291:-0.882324:0.190918:0.1875:-0.4375:-1.3125
1562065267440831:1:-1:-1:-5:-7:-2:-1:0:-0.48584:-0.875488:0.197266:0:-0.625:-1.25
1562065267500837:-11:-2:-3:-8:-2:1:-2:0:-0.483398:-0.882324:0.189941:0.1875:-0.5625:-0.125
1562065267549842:9:4:4:0:5:4:1:2:-0.491211:-0.907227:0.172363:-4.1875:0.125:1.8125
1562065267600847:-11:-10:1:-29:-6:2:1:-1:-0.491211:-0.848145:0.196289:4.1875:2.375:3.6875
1562065267640851:-11:5:7:44:3:1:0:2:-0.462402:-0.94873:0.207031:-2.9375:-7.25:8.125
1562065267699857:14:8:3:-39:10:6:6:3:-0.484863:-0.86377:0.208984:-6.25:-4.3125:-1.0625
1562065267752862:3:0:4:-11:3:-4:-1:-2:-0.508789:-0.862793:0.21875:14.375:1.375:-3.8125
1562065267800867:35:5:7:39:19:5:4:2:-0.493652:-0.866699:0.20459:1.5:-2.3125:-1.6875
1562065267849872:-25:0:-2:-37:2:1:1:-3:-0.477539:-0.889648:0.212891:1.3125:-1.25:-1.875
1562065267901877:96:-3:-13:-90:-59:-7:0:15:-0.475586:-0.869629:0.208008:-4.375:-3.0625:0.6875
1562065267955882:-54:-6:-1:-64:9:3:-3:-19:-0.493164:-0.877441:0.20166:16.375:-1.125:-0.0625
1562065268000887:43:9:11:-53:27:12:3:11:-0.48877:-0.820801:0.240723:14.25:-3.3125:3.875
1562065268052892:80:22:8:63:37:2:-2:8:-0.472656:-0.859863:0.26416:4.8125:-4.9375:4.3125
1562065268103897:104:31:3:-74:-11:10:8:5:-0.495117:-0.841309:0.241699:-0.4375:-2.75:4.8125
1562065268150898:-31:-10:14:-14:-14:-8:-4:-8:-0.500977:-0.857422:0.240234:1.4375:-4.1875:2.6875
1562065268205893:6:3:16:88:-26:-10:-5:-6:-0.506348:-0.856934:0.245117:-2.9375:-0.5:-0.0625
1562065268245889:18:3:-10:4:6:2:-1:0:-0.494141:-0.868164:0.247559:-4.375:-1.5:-1.375
1562065268305883:54:0:-2:-46:60:-4:0:7:-0.490723:-0.866211:0.244629:-0.9375:0:-2.1875
1562065268360877:-32:-4:-52:39:3:-5:-4:-4:-0.489746:-0.841309:0.244141:-5.4375:2.1875:0.125
1562065268412872:5:-1:5:29:36:-12:-7:-4:-0.5:-0.870117:0.237305:-1:-1.125:1.125
1562065268463867:-21:6:5:20:-15:4:4:-3:-0.489258:-0.862793:0.242188:-3.3125:1.5625:0.125
1562065268494864:-2:1:-11:-23:-18:-3:-1:-3:-0.492676:-0.85498:0.233398:-2.25:-0.125:0.6875
1562065268569856:3:0:-7:-55:-4:1:0:-1:-0.497559:-0.86377:0.228027:-4.6875:0.9375:0.8125
1562065268621851:-4:-1:0:6:23:-8:-3:-3:-0.491699:-0.818359:0.231934:-34.3125:5.0625:3.75
1562065268663847:1:1:2:-22:-83:-40:-7:-2:-0.48584:-0.856445:0.206055:-45.0625:3.75:0.1875
1562065268703843:0:-2:-2:-5:51:19:1:0:-0.544434:-0.90332:0.103027:-17.75:-12.5:-9.625
1562065268771836:-1:-1:0:9:8:-1:-4:-1:-0.4375:-0.872559:0.243652:31.0625:-6.375:-17.1875
1562065268822831:-1:-3:1:-7:-13:-7:1:-2:-0.433594:-0.870605:0.23291:-1.25:8.125:-11.1875
1562065268878825:-1:-3:-1:8:3:-1:-1:-1:-0.47998:-0.934082:0.168457:-3.5625:7.75:-6
1562065268922821:0:-4:-7:12:-18:-1:-5:-1:-0.480469:-0.880859:0.187988:5.1875:3.6875:1.9375
1562065268975816:-1:0:2:-8:5:0:0:1:-0.486328:-0.883301:0.192383:-1.5625:-1.5:5.0625
1562065269023811:0:0:1:-8:-9:5:2:-1:-0.460449:-0.881836:0.188477:0.375:0:1.75
1562065269081805:0:0:-1:4:6:1:-1:-1:-0.468262:-0.875:0.196777:0.25:-1.0625:-2.6875
1562065269124801:-1:-1:-1:-2:2:0:1:2:-0.471191:-0.889648:0.195312:0.5:0.25:-4.1875
1562065269184795:0:1:-1:-7:-7:1:1:-1:-0.46582:-0.889648:0.194824:0.4375:-1:-3.125
1562065269238789:1:0:-3:0:2:-3:-1:0:-0.461426:-0.88916:0.195801:0.5:-2:-0.8125
1562065269282785:-2:-1:0:4:4:0:-1:-1:-0.454102:-0.885254:0.206055:0.4375:-1:0.8125
1562065269335780:-1:0:-3:0:0:-1:-3:0:-0.463379:-0.891602:0.198242:-1.5:0.25:0.875
1562065269385775:-2:-1:-1:3:7:-1:-1:-2:-0.46875:-0.884766:0.197266:1.125:0.625:0.6875
1562065269440769:1:1:2:0:0:1:0:1:-0.466309:-0.889648:0.196289:0.125:0.875:0
1562065269484765:0:-1:0:5:-1:-1:0:0:-0.470215:-0.884766:0.192871:0.125:1.0625:0.0625
1562065269544759:-1:1:0:9:0:-1:0:-2:-0.472656:-0.880859:0.196289:1.125:-0.4375:-0.625
1562065269598753:0:-2:-2:0:-2:-1:-2:-1:-0.467773:-0.888672:0.200684:1.0625:-0.875:-1.25
1562065269644749:0:0:-1:-8:-11:-3:1:-1:-0.466797:-0.883301:0.215332:0.875:-0.3125:-0.5
1562065269694744:-3:-2:-1:7:5:-1:0:-1:-0.469727:-0.882324:0.214844:-1.1875:-0.1875:1.0625
1562065269745739:-1:-1:1:-1:-2:1:-1:-1:-0.459961:-0.88623:0.194824:-0.75:2.25:1.875
1562065269806733:-1:-3:-3:-1:1:5:0:-2:-0.469727:-0.877441:0.191406:-0.375:1.5:0.25
1562065269844729:-1:-1:-2:0:-4:-3:0:-2:-0.463379:-0.880859:0.177734:1:0.9375:-1.6875
1562065269904723:-1:-1:-4:1:-1:-4:1:0:-0.464844:-0.88916:0.188965:1.4375:-1.625:-3.4375
1562065269958717:0:-1:0:-1:1:-2:-1:-1:-0.464355:-0.890625:0.195312:1.125:-3.0625:-3.3125
1562065270008712:0:1:3:3:0:-1:-2:0:-0.463867:-0.884277:0.209473:1.375:-2.625:-2.0625
1562065270063707:-1:-1:-1:6:-2:1:0:0:-0.45752:-0.885254:0.211426:1.3125:-2:-1.6875
1562065270107703:-1:-3:-2:-3:-4:0:-1:-2:-0.462891:-0.885254:0.219727:0.0625:-0.375:-1.6875
1562065270160697:0:0:0:3:4:-1:-1:0:-0.464355:-0.885254:0.213867:0.1875:0.4375:-0.875
1562065270204693:0:-2:-2:2:1:3:-1:-1:-0.452148:-0.889648:0.211426:-0.75:1:-0.0625
1562065270264687:-2:0:-4:13:3:-5:-5:-2:-0.45752:-0.887695:0.197266:-1:1.5625:-0.0625
1562065270317682:0:0:-1:5:-1:4:1:0:-0.455078:-0.888672:0.197754:-1.5:1.1875:-0.625
1562065270367677:0:0:-3:-2:1:-1:-1:-3:-0.453125:-0.893066:0.188477:-0.375:1.25:-0.4375
1562065270423671:-2:-2:-2:-6:-5:-2:0:-1:-0.450195:-0.891113:0.195312:-0.0625:0.625:0.125
1562065270467667:0:-1:1:-1:2:5:0:2:-0.456543:-0.888184:0.196777:0.75:0.0625:0.4375
1562065270527661:-2:-1:-1:-5:-5:-3:-2:-2:-0.459961:-0.884277:0.196289:-0.3125:-1.0625:-0.9375
1562065270580655:-2:-2:-1:4:-6:-3:-1:0:-0.464844:-0.88916:0.206055:1.4375:-1.75:-1.3125
1562065270627651:-2:0:0:2:-2:-2:-1:0:-0.460938:-0.899902:0.215332:-0.1875:-1.375:0.5
1562065270677646:-2:-2:0:0:7:2:1:-1:-0.461914:-0.893555:0.217285:-0.6875:0.125:2.625
1562065270731640:0:1:2:4:-6:2:1:-1:-0.474121:-0.87207:0.212402:-0.625:2.6875:3.125
1562065270783635:-1:-2:-2:2:2:-2:0:-2:-0.464355:-0.876465:0.188965:-1.625:2.5625:0.375
1562065270827631:-2:-1:0:0:3:2:0:-1:-0.445801:-0.893066:0.188477:-1.5625:1.5:-1
1562065270886625:0:-3:-2:-1:2:0:-2:-1:-0.450195:-0.893066:0.191895:-1.375:1.625:-1.625
1562065270927621:0:-2:-3:-1:1:3:1:-1:-0.460449:-0.888672:0.196289:-1:0.875:-1.125
1562065270990614:1:0:0:-3:8:-2:-3:-4:-0.452637:-0.893066:0.187012:0.5625:0.875:0.375
1562065271029610:-1:-2:-3:0:-4:0:0:0:-0.464844:-0.891113:0.192871:0:0.625:1
1562065271088604:0:-1:-1:0:-2:-1:-1:-1:-0.470215:-0.88623:0.199707:1.375:0.5625:1.25
1562065271142599:-1:0:2:9:10:0:-3:0:-0.477051:-0.885742:0.196777:-0.375:0.6875:0.1875
1562065271187595:0:-2:-1:1:-2:0:-1:0:-0.468262:-0.887695:0.196777:0.4375:0.75:-0.625
1562065271246589:0:1:-2:2:2:-3:-2:-2:-0.455078:-0.889648:0.194336:-1.4375:0.625:-1.375
1562065271300583:-1:0:-1:1:2:-1:-3:0:-0.458496:-0.888672:0.206055:-0.5625:0.875:-0.6875
1562065271350578:-2:-1:-3:-4:-3:1:2:-2:-0.45459:-0.895996:0.196777:-1.5625:0.625:0.3125
1562065271389574:0:-2:0:1:1:0:2:-2:-0.458008:-0.894531:0.187012:-0.9375:1.25:1.25
1562065271449568:-1:0:0:-2:-3:-4:-3:1:-0.463379:-0.891602:0.185059:0.375:1.25:0.8125
1562065271502563:1:-1:0:-2:-3:-2:-2:-2:-0.476074:-0.883301:0.188965:0.875:-0.0625:0.375
1562065271549558:0:0:0:0:3:0:-5:-2:-0.476074:-0.88623:0.182617:0.5625:-1.3125:-0.25
1562065271609552:-1:-1:-2:1:5:2:2:0:-0.462402:-0.886719:0.186035:1.5625:-1.875:-0.875
1562065271647549:1:-1:0:0:5:5:4:1:-0.44873:-0.890137:0.186035:2.8125:-1.0625:-3.75
1562065271712542:-1:-1:0:-1:-4:-5:-2:-1:-0.452148:-0.892578:0.194336:3.3125:-1:-6.25
1562065271764537:-1:0:3:-1:-3:0:-3:0:-0.441406:-0.899902:0.206055:1.9375:-2.5:-7.5625
1562065271809532:0:-1:3:0:-1:4:7:-1:-0.439453:-0.898438:0.229004:0.3125:-3.75:-6.4375
1562065271868526:0:0:1:0:-5:-3:1:-1:-0.461914:-0.903809:0.223633:-1.5625:-4.3125:-1.8125
1562065271909522:0:0:-2:1:11:3:-3:-1:-0.456055:-0.902832:0.217773:-1.5:-3.375:2.5
1562065271970516:-1:0:-1:7:-1:-1:-2:-1:-0.445312:-0.882324:0.217285:-2.5:-0.75:5.125
1562065272011512:-1:0:0:-2:-5:5:-2:1:-0.436035:-0.884766:0.208984:-1.5:1.125:2.375
1562065272071506:-1:-1:2:0:-8:-3:-5:-1:-0.429688:-0.896973:0.203613:-0.125:2.25:0.625
1562065272124501:-2:-2:1:1:1:-5:-5:-1:-0.445801:-0.899414:0.205078:0.3125:3.3125:2.125
1562065272169496:0:0:-3:-1:7:-1:0:0:-0.462891:-0.889648:0.195312:2.125:4.125:4.4375
1562065272225491:0:1:0:9:1:0:0:-1:-0.460449:-0.893555:0.199707:1.375:3.5:4.375
1562065272270486:-2:-2:-3:-2:-9:-3:-4:-1:-0.466309:-0.884277:0.200195:1.3125:3.3125:3.875
1562065272329480:0:0:-1:-2:2:0:1:1:-0.477539:-0.878906:0.212402:0.1875:2.125:3.4375
1562065272372476:0:-1:0:1:-6:1:1:-2:-0.478516:-0.872559:0.197266:-1:1.5:2.25
1562065272432470:-1:-1:-2:-2:3:0:0:0:-0.462891:-0.883789:0.191895:-1.3125:1.0625:1.3125
1562065272484465:0:0:0:-7:1:3:0:0:-0.458984:-0.885254:0.192871:-0.75:0.4375:0.5
1562065272529460:0:0:-2:0:-2:-1:-1:0:-0.469727:-0.884277:0.18457:0.5625:0.5:0.0625
1562065272589454:0:0:0:4:0:3:0:0:-0.468262:-0.880371:0.189453:0.75:0.1875:-0.0625
1562065272629450:0:0:0:-1:-6:-5:-2:-2:-0.481445:-0.886719:0.195801:0.875:-0.9375:-0.4375
1562065272686445:-1:-4:-3:-4:-4:-5:-2:-1:-0.478027:-0.880371:0.199219:1.625:-1.1875:-0.5
1562065272732440:1:0:0:1:7:-1:-2:0:-0.475098:-0.880371:0.20459:1.25:-1.5:-0.625
1562065272792434:0:0:1:3:-4:-2:-2:-1:-0.478027:-0.87793:0.207031:0.125:-1.75:-0.4375
1562065272844429:-2:-1:0:-6:-1:-4:-7:-1:-0.466309:-0.877441:0.213867:-0.5625:-0.75:-0.125
1562065272892424:0:0:1:6:1:-3:2:-1:-0.455566:-0.887695:0.200195:-0.0625:0.5:-0.6875
1562065272950418:0:-2:-2:0:5:3:2:0:-0.461914:-0.88916:0.196777:-0.6875:0.6875:-0.875
1562065272994414:-1:-1:0:-5:0:-1:0:-1:-0.466797:-0.881348:0.195312:0.9375:0.8125:-0.25
1562065273054408:0:-3:1:-4:-2:4:-1:-3:-0.471191:-0.882812:0.205078:0.25:0.0625:0.0625
1562065273106403:1:1:2:-2:-1:0:0:0:-0.469727:-0.881348:0.210938:0.25:-0.625:0.0625
1562065273152398:1:-2:-2:1:2:0:0:0:-0.47168:-0.884277:0.205566:0.375:-0.625:-0.5625
1562065273207393:-1:-2:-3:-2:-1:0:0:0:-0.468262:-0.880371:0.206543:0.125:-0.5:-1.3125
1562065273252388:-1:-1:-1:-1:3:2:-1:-1:-0.469238:-0.881836:0.203125:-0.75:-1:-1.375
1562065273312382:0:1:-3:1:1:-5:-2:-2:-0.463867:-0.884766:0.205078:0.0625:-0.3125:-0.375
1562065273353378:-2:-1:-1:3:3:-1:-10:6:-0.462891:-0.890137:0.194824:-0.375:-0.875:0.3125
1562065273414372:52:16:-5:-110:-17:2:3:31:-0.48584:-0.986328:0.161621:-8.1875:-4.375:9.875
1562065273466367:-4:-11:-4:-26:-5:0:29:15:-0.558594:-0.753418:0.173828:5.375:7.3125:3
1562065273512362:2:3:17:39:18:4:5:-3:-0.464355:-0.943359:0.215332:9.625:-2.375:12.3125
1562065273567357:9:2:-4:12:8:-3:-11:-3:-0.492676:-0.855469:0.227051:15.375:-12.5:2.4375
1562065273616352:1:3:-6:23:17:3:10:5:-0.505859:-0.807129:0.248535:10.9375:-12.3125:-0.9375
1562065273669346:-9:25:-9:-83:-2:2:-1:2:-0.458496:-0.883789:0.299316:2.25:1:-2.5625
1562065273721341:-9:-3:3:47:11:3:7:12:-0.474121:-0.862793:0.259277:-1.6875:3.4375:2.625
1562065273766337:4:1:-1:34:4:0:-1:4:-0.492188:-0.867676:0.240723:0.375:4.5625:3.6875
1562065273827331:-44:-10:6:98:7:-2:-7:2:-0.487793:-0.850586:0.230469:0.5:3.9375:5.6875
1562065273875326:17:5:-7:-2:42:3:-1:7:-0.497559:-0.86377:0.241211:-1.625:-0.0625:1.75
1562065273916322:9:2:-19:-120:24:5:0:-1:-0.486816:-0.848633:0.241699:2.5625:-0.8125:0.5625
1562065273977316:10:6:0:59:-16:-1:0:6:-0.495117:-0.859863:0.246582:0.6875:-4.0625:-0.6875
1562065274032310:3:-1:4:3:23:-1:3:3:-0.492188:-0.856445:0.257812:-0.6875:-2.25:0.375
1562065274073306:-3:-8:-1:4:40:0:0:2:-0.47998:-0.874512:0.250977:-1.8125:-0.75:-0.0625
1562065274133300:-2:3:-1:-32:-14:2:3:4:-0.491699:-0.849121:0.256836:-12.5:-0.3125:2.8125
1562065274186295:-2:0:1:-7:-35:-12:-6:-2:-0.492676:-0.85791:0.239746:-46.8125:-1.0625:-1.4375
1562065274234290:2:1:1:-11:1:1:4:3:-0.486328:-0.882324:0.19043:-20.5625:-1.8125:-6.6875
1562065274285285:1:-6:-3:1:18:11:-1:-2:-0.481445:-0.859863:0.225098:7.875:2.8125:-9.875
1562065274337280:0:0:0:10:2:-3:-5:-1:-0.449707:-0.877441:0.209961:-3.8125:5.875:-7.8125
1562065274388274:1:1:1:21:13:0:1:0:-0.474609:-0.927246:0.18457:-1.1875:8.3125:-3.0625
1562065274434270:0:-3:-7:-16:1:0:-4:0:-0.482422:-0.876953:0.193848:4.625:5.4375:3.375
1562065274494264:-1:-4:-7:-31:5:2:0:1:-0.477051:-0.874512:0.186523:-3.25:3.75:3
1562065274535260:0:-1:-1:2:-11:-1:-2:0:-0.486816:-0.869141:0.1875:2.9375:-1.4375:0
1562065274592254:0:-2:0:13:-7:-3:-2:0:-0.481445:-0.864746:0.202148:-0.8125:-2.375:-2.3125
1562065274636250:0:-1:-2:9:13:8:2:0:-0.479492:-0.888184:0.191406:0.125:-2.25:-2.6875
1562065274696244:0:-3:-2:-5:-3:-2:1:-1:-0.469238:-0.882324:0.196289:-0.875:-1.3125:-1.5625
1562065274749238:0:-1:-5:-31:-1:-2:0:-2:-0.474609:-0.88916:0.20166:-0.875:-0.9375:-0.75
1562065274797234:-1:-3:-2:-7:-5:-3:-1:-2:-0.474121:-0.883301:0.197754:0.375:0.25:0.1875
1562065274856228:-2:0:0:-3:11:3:0:1:-0.470703:-0.880371:0.196289:0.3125:0.125:0.25
1562065274899223:-1:1:3:-4:-2:-1:1:-1:-0.472168:-0.880371:0.195801:1:0.3125:1
1562065274959217:1:-1:-1:-1:-3:0:2:0:-0.477051:-0.876465:0.19873:0.0625:0.625:1.25
1562065275012212:-2:-1:1:-2:4:3:0:-1:-0.473145:-0.880859:0.20166:0.125:0.6875:0.625
1562065275064207:0:-1:-1:-8:3:4:2:-1:-0.480469:-0.881348:0.196777:0:0.75:0.5625
1562065275108202:-1:0:-2:-8:-3:-2:-2:-1:-0.48291:-0.878418:0.18457:-0.5:0.625:0.125
1562065275157198:-2:-1:-1:2:-1:-2:-1:-2:-0.483398:-0.881348:0.182129:1.0625:-0.375:-0.0625
1562065275200193:0:0:0:-4:-3:-3:-1:0:-0.47998:-0.87793:0.192383:-0.625:-1.9375:-1.25
1562065275259187:-1:0:-1:-7:2:0:1:0:-0.47998:-0.876953:0.195801:0.125:-2.0625:-1.6875
1562065275319181:0:-1:-1:-2:1:4:-2:-1:-0.476074:-0.883789:0.194336:0.0625:-1.9375:-1.875
1562065275371176:1:-1:1:-3:1:1:-1:0:-0.47168:-0.881836:0.197754:0.25:-1.0625:-1.25
1562065275417172:2:1:4:1:2:1:0:-1:-0.470215:-0.886719:0.200195:1:0.375:-0.25
1562065275476166:-1:0:-3:2:-3:1:1:0:-0.46582:-0.881348:0.204102:-0.5625:0.625:0.6875
1562065275522161:-2:0:-3:-9:-1:3:-3:0:-0.47168:-0.885742:0.193359:-0.375:1.125:2.0625
1562065275574156:-1:-1:-2:-5:-1:-2:0:-2:-0.475098:-0.879883:0.203613:0.3125:1.4375:1.9375
1562065275619151:-1:1:0:-1:-1:0:1:-1:-0.475586:-0.880371:0.188965:0:1.8125:1.375
1562065275678145:0:-2:-3:-1:-1:-2:-1:-1:-0.489746:-0.875488:0.187988:0.0625:0.875:0.4375
1562065275731140:1:-1:3:-4:-3:-7:-6:-1:-0.485352:-0.877441:0.194824:0.5:-0.5:-0.5
1562065275779135:-1:0:1:0:-2:0:-1:-2:-0.475098:-0.883301:0.202637:0.0625:-1.125:-1
1562065275837130:0:-1:0:-2:-1:-3:-3:-3:-0.474609:-0.876953:0.199219:0.4375:-0.9375:-1.0625
1562065275881125:-2:0:0:3:2:1:0:-1:-0.472168:-0.879883:0.200684:0.5:-0.125:-0.9375
1562065275922121:0:0:3:-1:2:2:1:-1:-0.47168:-0.880371:0.197754:0:0.1875:-0.75
1562065275979115:-2:0:1:1:-4:-2:-2:1:-0.474609:-0.87793:0.195801:0.5625:0.1875:-0.25
1562065276039109:-2:1:-2:3:-1:1:2:-2:-0.473145:-0.884766:0.20166:0.5625:0.0625:-0.1875
1562065276091104:0:0:0:-5:-1:-2:1:-2:-0.475098:-0.877441:0.20166:0.3125:0.25:-0.6875
1562065276139099:-2:-1:-3:0:5:1:-2:-1:-0.479492:-0.884766:0.202148:-0.25:-0.5625:-0.4375
1562065276197094:-1:-2:-1:0:-1:1:0:1:-0.472168:-0.879883:0.20166:0.25:-0.1875:-0.1875
1562065276242089:-1:0:-4:-4:-6:1:-2:1:-0.474609:-0.881836:0.200684:-0.5:-0.1875:-0.5
1562065276293084:-1:-2:0:-1:3:-3:-1:-2:-0.47168:-0.884766:0.193848:-0.125:-0.375:-0.3125
1562065276338079:0:0:-3:1:3:0:1:2:-0.472168:-0.886719:0.204102:-0.4375:-0.1875:-0.0625
1562065276399073:0:0:-2:0:-4:0:0:-2:-0.471191:-0.884277:0.205566:0.5625:0.1875:0.25
1562065276451068:0:-1:-6:-2:-9:-1:-1:-3:-0.474121:-0.882812:0.199707:-0.25:0.125:0.1875
1562065276505063:0:1:-2:0:2:-2:-1:-1:-0.474609:-0.880371:0.199219:0.125:0.375:0.1875
1562065276555058:-1:0:-1:1:6:4:-1:-1:-0.480957:-0.877441:0.197754:-0.25:0.0625:0.0625
1562065276602053:-1:-1:-5:-6:1:4:0:0:-0.477539:-0.881836:0.198242:0.125:-0.25:-0.25
1562065276662047:-2:-1:-1:0:6:4:1:-2:-0.474609:-0.876465:0.197754:-0.125:-0.3125:-0.125
1562065276702043:0:-1:-4:0:0:1:-1:-2:-0.471191:-0.878418:0.202637:0.5625:0.1875:0
1562065276761037:1:-1:-1:7:-3:1:1:-1:-0.473633:-0.882324:0.195312:-0.0625:0.3125:0.3125
1562065276811032:-1:0:3:0:-1:-1:0:-2:-0.473145:-0.885254:0.206543:-0.125:0.1875:0.1875
1562065276864027:0:-1:-2:2:-2:-3:-1:-1:-0.479004:-0.883301:0.20166:-0.0625:0.25:0.1875
1562065276917022:-1:0:0:-1:0:1:-1:1:-0.473633:-0.883301:0.199707:0.25:0.5625:0.625
1562065276961017:-1:1:2:-8:1:1:-2:-1:-0.478516:-0.879395:0.200195:0.125:0.3125:0.125
1562065277022011:1:0:2:-1:0:-2:-4:-1:-0.476074:-0.878906:0.201172:-0.0625:0.125:0
1562065277062007:0:-1:-2:2:2:-2:0:0:-0.477051:-0.883301:0.200195:-0.4375:-0.0625:0.125
1562065277122001:-1:0:-1:-5:-14:-1:3:-2:-0.474121:-0.880371:0.203613:0.0625:0:-0.125
1562065277164997:0:0:0:0:3:1:0:-1:-0.479492:-0.878906:0.200195:-0.125:-0.375:-0.625
1562065277223991:-1:0:0:5:1:-2:-1:0:-0.477539:-0.881836:0.196777:-0.125:-1:-1.3125
1562065277275986:-2:-1:1:0:-4:-4:-2:-2:-0.474121:-0.879395:0.203125:0.0625:-1.125:-1.375
1562065277321981:-2:0:3:2:5:1:-1:0:-0.473145:-0.885742:0.200195:-0.3125:-0.625:-0.75
1562065277361977:-2:-2:0:0:-5:-1:1:0:-0.470703:-0.884277:0.204102:-0.25:-0.125:-0.3125
1562065277425971:-1:-2:-1:-2:-3:-2:-3:-1:-0.467773:-0.888184:0.195801:-0.3125:0.5625:-0.4375
1562065277478965:-2:0:-1:2:4:1:0:1:-0.470703:-0.881348:0.202148:-0.25:0.0625:-0.125
1562065277523961:0:-1:-2:-4:-1:-1:-1:0:-0.472168:-0.878418:0.194824:-0.25:0.0625:-0.125
1562065277587954:-1:1:2:2:0:-1:-1:-1:-0.466797:-0.879395:0.192871:-0.5625:-0.1875:-0.25
1562065277635950:-1:-2:-6:-3:3:4:3:2:-0.465332:-0.884277:0.20166:0.25:-0.25:-0.8125
1562065277683945:0:0:-3:-2:-1:0:1:-1:-0.478027:-0.889648:0.196289:-1.0625:-0.375:-0.6875
1562065277726941:-2:0:-2:-5:4:2:-1:0:-0.472656:-0.883789:0.19873:0.1875:-0.125:-0.375
1562065277786935:0:-1:-2:-3:-10:1:3:0:-0.470215:-0.890625:0.194824:-0.25:0.125:-0.3125
1562065277837929:-1:-1:-2:2:-8:-2:1:0:-0.46582:-0.885254:0.199219:0.0625:0.375:-0.25
1562065277883925:-1:1:-1:0:-14:-5:-6:-1:-0.467285:-0.882812:0.195801:-0.1875:0.4375:-0.5
1562065277936920:0:0:-2:1:14:6:2:1:-0.46875:-0.882324:0.193359:-0.75:0.25:-0.8125
1562065277983915:-1:-4:-2:0:-1:-1:-1:-1:-0.468262:-0.885254:0.199707:-0.4375:-0.5625:-0.25
1562065278043909:-1:-1:0:5:5:0:-2:-2:-0.463379:-0.881348:0.19873:-0.1875:-0.375:0.25
1562065278086905:0:-1:0:-3:-5:-3:-2:-1:-0.466309:-0.880859:0.199219:-0.375:-0.0625:0.125
1562065278145899:-1:1:-1:-1:1:1:2:-1:-0.469727:-0.87793:0.196777:-0.125:-0.125:-0.375
1562065278197893:0:1:1:-5:5:5:2:0:-0.471191:-0.881348:0.197754:-0.0625:-0.125:-0.25
1562065278243889:-1:0:1:1:-3:-1:1:-1:-0.467285:-0.885742:0.197754:-0.625:0:-0.0625
1562065278295884:-1:-1:0:0:-3:-3:-2:0:-0.464844:-0.88623:0.202637:0:0.3125:0.3125
1562065278351878:-1:-2:-2:-2:-4:-4:-7:-3:-0.46582:-0.885742:0.192383:-0.0625:0.1875:-0.25
1562065278401873:-1:0:0:0:-3:-2:0:0:-0.467285:-0.881348:0.203125:-0.875:-0.5:0
1562065278451868:-1:2:0:2:1:-2:-1:-2:-0.470703:-0.88623:0.19873:-0.875:-1.125:-0.3125
1562065278508862:15:11:7:25:13:1:0:4:-0.472168:-0.894043:0.183594:-1.25:-1.6875:-0.875
1562065278557857:-5:-14:-1:-19:-7:2:1:2:-0.405762:-0.952148:0.224609:-2.5:-3.625:7.8125
1562065278608852:-5:-4:-11:-77:0:-9:-6:-9:-0.464844:-0.939453:0.192871:-2.3125:-2.5:4.875
1562065278663847:24:3:2:6:13:-1:-1:-3:-0.500977:-0.845215:0.214844:20.0625:-0.625:5.0625
1562065278711842:3:5:-3:27:5:-2:-3:-3:-0.456055:-0.866211:0.234863:2.6875:-1.75:0.3125
1562065278760837:1:-10:-7:-12:-16:-8:-7:-3:-0.519531:-0.852539:0.199707:-1.625:-4.375:-1.75
1562065278808832:-10:-1:-8:-8:0:-8:-3:-6:-0.465332:-0.88916:0.226074:2.1875:-6.0625:-0.875
1562065278868826:8:1:10:-25:21:5:0:3:-0.459961:-0.870605:0.239746:2.875:-1.875:1.875
1562065278917821:28:4:-9:-52:-5:0:0:1:-0.476074:-0.883301:0.241699:4.1875:0.4375:2.5625
1562065278971816:9:-8:5:-45:29:2:4:7:-0.48877:-0.858887:0.230469:4.625:0.6875:3.0625
1562065279024811:22:-3:-9:-49:-2:-2:0:0:-0.486816:-0.854004:0.239746:4.5625:0.1875:2.75
1562065279075806:-1:5:3:1:-30:13:5:3:-0.484863:-0.86084:0.236816:0.875:0.8125:0.875
1562065279121801:8:-2:-9:-11:21:-4:-3:-3:-0.502441:-0.865723:0.233398:1.9375:-3.25:0.9375
1562065279168796:10:1:-1:26:-2:-6:-3:-2:-0.470215:-0.856445:0.241211:-4.25:-1.875:-1.5625
1562065279228790:0:-1:0:-3:14:0:0:0:-0.491211:-0.859375:0.234863:-7.3125:-0.5625:-2.375
1562065279279785:2:0:1:22:-8:-4:-2:-2:-0.47168:-0.868652:0.253418:-12:4.9375:-4.25
1562065279323781:0:-2:-6:21:-47:-7:-1:-3:-0.484375:-0.87793:0.192871:-17.1875:1.125:-3.125
1562065279382775:1:1:-1:-9:31:6:4:0:-0.483398:-0.876465:0.214355:-4.1875:-0.375:-1.8125
1562065279431770:-1:1:1:1:24:-8:-4:-2:-0.45752:-0.886719:0.20752:-10.75:4.8125:-4.25
1562065279483765:-1:-6:2:-6:18:3:4:0:-0.478516:-0.883789:0.173828:-9.4375:1.9375:-3.375
1562065279531760:-2:-7:-4:-3:1:-2:-3:-3:-0.466309:-0.908203:0.177246:2.3125:2.3125:-4.5625
1562065279587754:0:-1:1:-1:-8:0:0:1:-0.460938:-0.883789:0.199707:2.5625:-1.25:-1.6875
1562065279633750:-1:-2:-5:-3:8:-2:-4:-1:-0.453125:-0.896484:0.191406:-3.125:-0.375:-1.875
1562065279692744:0:-1:4:3:1:1:-2:0:-0.464844:-0.895508:0.187012:1.25:2.4375:-0.0625
1562065279742739:1:0:2:1:6:4:1:0:-0.466797:-0.885254:0.186035:1.9375:1.75:0.8125
1562065279791734:0:0:-1:-4:-1:0:0:0:-0.468262:-0.892578:0.185547:0.25:0.0625:0.0625
1562065279830730:0:0:4:19:2:-4:0:0:-0.472168:-0.885254:0.182129:1.375:-0.8125:-0.125
1562065279891724:-2:1:1:1:-2:-1:0:0:-0.466309:-0.891113:0.191406:1.8125:-0.875:-0.75
1562065279946719:-1:0:0:-1:-3:-2:-2:-1:-0.464355:-0.89209:0.195801:1.4375:0.1875:-0.25
1562065279993714:1:0:0:-5:0:2:0:-2:-0.466797:-0.886719:0.195312:0.9375:0.4375:0.1875
1562065280053708:-1:1:-3:-28:-3:2:-1:-1:-0.464355:-0.885742:0.195801:1.25:0.5625:0.8125
1562065280103703:1:0:4:6:0:1:1:1:-0.468262:-0.887695:0.198242:0.5625:0.3125:0.6875
1562065280151698:2:2:4:7:0:-1:0:0:-0.466309:-0.88916:0.192383:0.5625:0.5625:0.3125
1562065280199693:0:0:-2:-4:-4:-3:0:0:-0.46875:-0.882324:0.197754:-0.0625:0.4375:-0.4375
1562065280259687:-2:-2:1:3:-2:1:-1:-1:-0.469238:-0.884277:0.192871:0.75:-0.5:-0.8125
1562065280312682:-2:-2:-3:0:4:-2:-2:-2:-0.471191:-0.883789:0.194336:0.625:-0.8125:-0.625
1562065280361677:-1:-3:-3:-2:-2:-1:-3:0:-0.458496:-0.885254:0.202637:-0.1875:-0.8125:-0.75
1562065280412672:-2:-1:1:3:2:-1:-1:0:-0.461914:-0.889648:0.193359:-0.125:0.3125:0.5625
1562065280463667:-1:-1:0:-3:2:1:1:-1:-0.466309:-0.888184:0.198242:0:1.125:2
1562065280513662:0:-2:-5:2:4:-3:-1:-1:-0.466797:-0.882324:0.196777:-0.8125:2.5625:3.5
1562065280553658:-1:-2:-2:4:2:0:0:0:-0.471191:-0.879395:0.180176:0.125:3.125:2.875
1562065280612652:0:-2:0:-4:-1:-2:1:-2:-0.484375:-0.876953:0.181152:-0.0625:-0.3125:-0.75
1562065280665647:-1:-1:-4:-11:-5:-3:0:0:-0.486816:-0.87793:0.178711:0.75:-3.375:-3.5625
1562065280712642:0:-2:-3:-2:10:5:-1:0:-0.467773:-0.891602:0.197266:-0.3125:-3.75:-3.25
1562065280772636:-2:-2:2:-6:1:4:3:2:-0.472168:-0.879883:0.210938:-0.1875:-1.5625:-0.9375
1562065280822631:-2:0:3:-4:-3:1:1:0:-0.458496:-0.88623:0.205078:-0.375:0.8125:-0.9375
1562065280873626:-1:0:-2:-3:-12:0:-1:-3:-0.455078:-0.883301:0.187988:-0.625:2:-1.875
1562065280928620:0:-2:-2:0:-1:0:1:2:-0.46875:-0.883789:0.184082:0.5625:1.3125:-1.75
1562065280976616:-2:0:-2:-2:4:-1:0:-1:-0.462891:-0.890625:0.188477:0.3125:-0.5625:-1.375
1562065281025611:0:-1:-3:-1:5:2:0:0:-0.463867:-0.88623:0.190918:0.125:-1.8125:-0.75
1562065281073606:1:-2:0:-1:2:5:1:0:-0.469727:-0.891113:0.196777:-0.125:-1.875:-0.8125
1562065281133600:-1:1:-1:-1:-2:-4:-2:-1:-0.464355:-0.887695:0.203125:-0.125:-0.4375:-0.5
1562065281182595:1:-1:0:-2:-2:0:1:1:-0.467285:-0.887207:0.200195:-1.25:0:-0.875
1562065281234590:0:-1:-1:-1:-5:-1:-2:-1:-0.458496:-0.886719:0.194336:-0.4375:0.3125:-1.25
1562065281279585:0:-1:4:2:-2:-2:-1:-2:-0.454102:-0.898926:0.189941:-1.3125:0.0625:-1.25
1562065281332580:-1:-2:0:0:-7:0:0:0:-0.456055:-0.888184:0.186035:-0.5:-0.625:-1.0625
1562065281385575:-1:0:0:-6:-1:0:1:-1:-0.452637:-0.88623:0.202148:-0.0625:-0.8125:-0.75
1562065281436570:0:-3:-3:-1:4:4:1:-2:-0.45459:-0.89209:0.194824:-0.25:-0.4375:-0.5625
1562065281491564:-1:-1:-2:1:-9:0:1:-1:-0.456543:-0.89502:0.197754:0.0625:0.0625:0.25
1562065281535560:0:0:-3:2:3:-1:-5:-1:-0.45459:-0.893555:0.199707:-0.25:0.3125:0.3125
1562065281588554:-3:-1:2:4:4:-3:-3:-1:-0.458984:-0.884766:0.196289:-0.5:0.875:0.125
1562065281632550:0:0:-1:-2:0:0:-1:-1:-0.460449:-0.891113:0.192871:-0.4375:0.875:-0.1875
1562065281695544:1:0:0:-1:-3:0:-2:1:-0.459961:-0.892578:0.192871:-0.25:0.8125:-0.75
1562065281744539:-1:0:-2:-3:-6:-3:-1:0:-0.453125:-0.888184:0.191895:-0.25:0.375:-0.9375
1562065281795534:0:1:-1:0:7:0:0:-2:-0.454102:-0.896973:0.188477:-0.875:-0.5625:-0.6875
1562065281850528:0:-2:-4:-2:0:-1:1:-2:-0.454102:-0.887207:0.1875:-1.375:-1:-0.375
1562065281894524:-1:2:-1:-1:-3:-1:0:1:-0.455078:-0.892578:0.195801:-0.5625:-0.5625:-0.3125
1562065281955518:-3:-1:-5:-3:-4:-3:-2:-1:-0.455078:-0.893066:0.19043:0.125:0.0625:-0.5625
1562065281995514:-1:-3:-1:2:2:-1:-3:0:-0.456055:-0.895996:0.188965:-0.75:-0.375:-1.3125
1562065282055508:-1:0:0:-3:-9:-3:1:-1:-0.456543:-0.893555:0.193359:-0.625:-0.4375:-1.125
1562065282104503:0:0:2:1:3:0:-2:-1:-0.45752:-0.892578:0.191895:-0.1875:-0.375:-0.75
1562065282157497:-1:-4:-3:1:4:-1:-1:0:-0.450195:-0.89502:0.192383:-0.25:0.4375:0.0625
1562065282195494:-2:0:-2:-3:-7:-2:0:-1:-0.445801:-0.895508:0.191895:-0.25:1:0.125
1562065282255488:-1:-1:-2:0:4:2:0:0:-0.453125:-0.897461:0.188477:-0.25:1.25:0.5
1562065282314482:-1:-1:1:-1:-3:-4:0:0:-0.458496:-0.891113:0.184082:0.125:0.5625:0.8125
1562065282358477:0:-2:0:-1:-1:0:1:1:-0.456543:-0.894043:0.187988:0.625:0.5:0.9375
1562065282419471:0:-1:-3:0:-2:0:0:0:-0.456543:-0.893066:0.183105:0.625:0.25:0.625
1562065282457467:-1:-1:1:1:-7:0:1:-2:-0.44873:-0.89502:0.189941:0.25:0.125:0.3125
1562065282510462:0:-1:3:1:-5:-2:-2:0:-0.458984:-0.890625:0.194824:-0.25:0.4375:0.5
1562065282570456:0:-2:-2:0:-2:0:-1:1:-0.455078:-0.894043:0.197754:-0.125:0.5625:1
1562065282615452:-1:0:-2:3:1:0:1:-1:-0.460938:-0.891113:0.185547:0.625:1.375:1.1875
1562065282674446:-2:-2:0:-1:0:-4:1:1:-0.459473:-0.893066:0.183105:0.0625:1.0625:-0.1875
1562065282719441:-1:0:0:0:1:-3:0:0:-0.466309:-0.887695:0.186035:1.4375:-0.0625:-0.5625
1562065282774436:0:-3:-1:-2:-1:-2:-1:-2:-0.464355:-0.889648:0.191406:0.4375:-1.8125:-0.5
1562065282817431:0:-1:1:2:0:-1:-2:0:-0.458496:-0.89502:0.188477:0.4375:-1.9375:-0.5
1562065282877425:0:-2:-2:-1:-3:-4:-5:-1:-0.453613:-0.88916:0.195312:0.4375:-0.8125:-0.625
1562065282930420:1:-1:-1:-2:4:-2:0:-1:-0.459473:-0.888184:0.203613:-0.1875:-0.4375:-0.625
1562065282977415:-1:-2:-3:-2:0:5:2:0:-0.453613:-0.899414:0.196289:0.75:0.5625:0.4375
1562065283028410:0:0:1:-7:-26:-3:0:-1:-0.456055:-0.89209:0.195312:0.375:1.125:1.1875
1562065283079405:-1:-1:0:0:-2:-1:-1:0:-0.458496:-0.889648:0.193848:0.625:1.9375:2
1562065283133400:0:0:3:2:7:1:0:-2:-0.461914:-0.884277:0.188477:0.5625:1.5:1.375
1562065283178395:-1:-1:-4:-1:-3:-5:-5:0:-0.467773:-0.884766:0.191406:0.375:0.4375:0.1875
1562065283237389:0:-1:-1:0:-1:-2:-1:-1:-0.461914:-0.888184:0.191406:0.4375:-0.875:-0.25
1562065283291384:-1:-2:-1:3:-3:0:-2:-1:-0.465332:-0.88916:0.191406:0.3125:-1.4375:-0.3125
1562065283341379:-1:0:-1:-1:2:-1:0:-2:-0.460938:-0.888672:0.201172:0.1875:-0.8125:-0.375
1562065283380375:-1:-1:-1:5:-3:-2:0:0:-0.463379:-0.883301:0.197266:0.5:-0.375:-0.3125
1562065283439369:1:0:-2:-1:-7:0:1:-1:-0.45752:-0.890625:0.19873:0.375:0:-0.375
1562065283493364:1:1:3:3:2:0:1:0:-0.458984:-0.886719:0.191406:-0.125:-0.125:-0.4375
1562065283537359:-2:-2:0:-3:0:0:0:-1:-0.460449:-0.887695:0.195801:0.4375:-0.375:-0.25
1562065283598353:-1:-1:0:-1:-9:-3:0:0:-0.457031:-0.888672:0.194824:-0.0625:-0.3125:-0.1875
1562065283651348:-1:0:-3:0:2:-3:-1:0:-0.459473:-0.884766:0.191406:-0.25:-0.1875:-0.1875
1562065283700343:-3:-2:0:1:2:-1:-1:-1:-0.458984:-0.89209:0.191895:0.125:0.0625:0.0625
1562065283745339:-1:0:1:-2:-8:-3:-1:0:-0.462891:-0.893555:0.199707:-0.125:0:0.25
1562065283799333:1:0:-2:1:-12:-4:-1:-1:-0.461914:-0.888184:0.194336:-0.75:-0.375:0.1875
1562065283852328:-1:0:1:-2:-1:-3:1:0:-0.461426:-0.886719:0.195801:-0.375:-0.375:0.0625
1562065283900323:0:-1:0:-4:-9:4:1:1:-0.461426:-0.894043:0.203125:0.125:-0.1875:-0.375
1562065283960317:-3:-1:1:2:2:-4:-3:-3:-0.460449:-0.89209:0.188477:-0.8125:-0.375:-0.25
1562065284009312:-4:2:1:-6:-2:-1:1:2:-0.460938:-0.883789:0.19873:-0.25:-0.375:-0.3125
1562065284056308:-11:-1:12:17:21:5:10:-10:-0.496582:-1.04883:0.0795898:-25.25:-3.5:4.1875
1562065284115302:12:-18:-17:94:-13:-23:-12:-4:-0.390137:-0.753418:0.26123:62.9375:-2.75:12.4375
1562065284160297:15:20:9:-54:-15:5:3:1:-0.409668:-1.02539:0.203613:10.375:3.125:2.5
1562065284213292:-32:-10:-10:-71:-8:-1:-1:-11:-0.51123:-0.783691:0.234375:7.25:-7.375:9.0625
1562065284266287:-80:-30:-16:-1:7:-8:-6:-10:-0.44043:-0.915039:0.262207:-10:-1.875:5.1875
1562065284318281:8:10:9:-84:1:4:3:7:-0.494629:-0.807617:0.241699:-5.5625:1.0625:1.5
1562065284362277:14:-4:-1:36:-9:-4:-1:1:-0.473145:-0.88916:0.226074:1.4375:-0.5625:-1.125
1562065284423271:13:8:-5:-55:-41:-5:-2:2:-0.475586:-0.868164:0.239258:-0.8125:-0.25:0.3125
1562065284466267:-5:-1:-2:51:4:7:1:1:-0.48877:-0.889648:0.245117:-1.5:-1.875:2.1875
1562065284521261:-77:-5:2:17:-17:5:2:-1:-0.477539:-0.864258:0.237305:-1.875:2.8125:2.1875
1562065284573256:-13:-12:-1:18:17:-3:0:2:-0.494141:-0.841309:0.229492:2.25:-1.3125:2.375
1562065284623251:-1:-4:3:33:14:4:1:2:-0.47998:-0.858398:0.246582:-1.875:1.25:0.125
1562065284668246:3:-1:-5:-22:13:0:1:1:-0.48584:-0.856445:0.227051:-5.125:-0.625:0.625
1562065284722241:-11:-5:-4:-27:-108:-5:-1:-3:-0.507324:-0.871094:0.211426:-44.375:-4.75:-3.5625
1562065284775236:-2:-5:5:9:12:-10:-1:-2:-0.471191:-0.877441:0.186035:-7.4375:-4.625:-6.5
1562065284823231:1:0:-4:42:-7:-6:-4:-2:-0.448242:-0.912598:0.246582:7.375:1.5:-9.4375
1562065284883225:-2:-2:-4:-18:-2:-4:-2:0:-0.442383:-0.879395:0.197754:4.625:13.125:-6.1875
1562065284932220:-1:-2:-2:21:15:-4:-2:0:-0.481445:-0.894043:0.164551:3.8125:11.9375:-7.125
1562065284984215:-2:-1:1:14:0:-1:-1:0:-0.498535:-0.87793:0.15332:7.25:6.75:2.75
1562065285037209:-2:0:1:5:3:2:-1:0:-0.471191:-0.875977:0.176758:-3.5625:-0.6875:4.625
1562065285083205:-2:0:-3:-1:7:5:-1:-1:-0.467285:-0.895996:0.17627:-5.875:0.3125:-0.0625
1562065285139199:-2:-3:-5:-2:-3:-3:-2:-8:-0.477051:-0.879883:0.192383:-2.8125:-4.8125:-1.5
1562065285182195:-1:-2:3:32:-16:-6:-2:-1:-0.462891:-0.908691:0.194336:-3.8125:0.5:-2.3125
1562065285244189:-2:-2:-2:10:5:-1:-1:-1:-0.473633:-0.884277:0.179199:1.9375:0.25:-1.0625
1562065285284185:-1:-1:0:8:3:-1:-1:1:-0.468262:-0.895996:0.186523:-0.75:1.4375:-1.125
1562065285344179:-3:-1:-2:5:-2:-2:-2:-2:-0.474609:-0.885742:0.181152:1.875:-0.4375:-0.1875
1562065285383175:0:-2:-1:-12:0:-2:0:-3:-0.464844:-0.890625:0.189941:0.625:0.5625:-1.125
1562065285442169:-1:-1:-3:8:11:4:2:0:-0.466309:-0.884766:0.180664:0.9375:-0.5:-1.5625
1562065285498163:-3:-3:-2:1:1:-2:-1:-2:-0.465332:-0.884766:0.191895:0.4375:-0.4375:-1.4375
1562065285550158:1:2:-1:-9:2:0:0:1:-0.462891:-0.899414:0.183594:-0.25:-0.1875:-1.1875
1562065285603153:0:-2:3:16:1:-2:-4:-1:-0.464355:-0.884766:0.189941:0.625:-1.1875:-0.5
1562065285645149:-2:-4:-1:7:5:0:2:-2:-0.469727:-0.888184:0.197266:-0.0625:1.5:-0.625
1562065285697143:1:-2:0:-2:1:0:2:0:-0.462891:-0.88916:0.181152:-0.9375:0:-0.125
1562065285742139:-1:2:1:-9:-5:-2:-1:0:-0.458496:-0.891113:0.185059:-0.875:0.1875:-0.5625
1562065285802133:-2:-1:-4:-20:-4:-3:-2:1:-0.466309:-0.893066:0.177246:-1.125:0.5625:-0.6875
1562065285858127:1:1:0:14:3:3:2:1:-0.464355:-0.879395:0.195312:1.8125:0.75:0.0625
1562065285908122:2:3:-11:1:3:4:2:1:-0.458496:-0.890137:0.18457:-0.1875:0.4375:-0.625
1562065285962117:-1:0:-2:-5:-2:3:1:1:-0.464844:-0.893555:0.184082:1.0625:-0.0625:0.375
1562065286004113:-2:1:1:-6:-3:0:-1:0:-0.459473:-0.889648:0.186523:-0.375:0.3125:0.125
1562065286064107:0:-1:-3:5:-2:0:0:0:-0.464844:-0.893066:0.184082:-0.375:1.0625:0.3125
1562065286104103:0:-2:-1:-7:2:2:-1:-2:-0.465332:-0.890137:0.181641:0.0625:0.8125:0.5625
1562065286166097:-1:-2:-2:-7:6:3:2:-1:-0.463379:-0.888184:0.182129:-0.1875:0.5625:0.25
1562065286206093:0:0:1:-4:1:0:0:-1:-0.466797:-0.884766:0.181152:0.5:-0.625:-0.3125
1562065286267086:0:1:-6:-3:-4:-1:-2:2:-0.467285:-0.890137:0.178223:1.4375:-1.0625:-0.9375
1562065286320081:0:-1:0:-2:-3:5:5:2:-0.464844:-0.89209:0.188965:0.5625:-1.375:-1.375
1562065286365077:-1:1:-5:5:-1:-4:-2:-1:-0.461914:-0.890137:0.194336:-0.25:-0.625:-1
1562065286425071:0:1:-2:2:3:-2:0:-1:-0.465332:-0.88623:0.194336:0.3125:-0.125:-0.4375
1562065286465067:-1:-2:-2:-7:1:-3:-1:-3:-0.458496:-0.893066:0.186035:-0.9375:0.3125:-0.375
1562065286525061:-1:-2:-4:-1:0:0:0:-1:-0.463867:-0.890137:0.185547:0.375:-0.3125:-0.5625
1562065286567056:-1:1:-2:2:1:1:2:0:-0.460449:-0.896484:0.19043:0.25:-0.3125:-1.1875
1562065286627050:0:0:-4:-1:-2:-3:-1:-1:-0.460449:-0.892578:0.184082:0.0625:-0.125:-0.875
1562065286680045:1:0:-1:-7:1:0:2:0:-0.454102:-0.896973:0.192383:0.25:0.75:0.3125
1562065286725041:1:0:0:-2:0:0:2:0:-0.460938:-0.885742:0.189453:1.125:1.25:1.3125
1562065286780035:-2:2:-1:1:-1:2:2:1:-0.466309:-0.890625:0.188477:-0.6875:1.125:0.875
1562065286825031:1:-1:0:-6:-8:-5:-3:-2:-0.467285:-0.89209:0.190918:0.4375:0.9375:0.5
1562065286881025:0:0:2:-2:-1:1:0:0:-0.46582:-0.889648:0.181152:-0.625:0.3125:0.5
1562065286927020:-2:0:4:0:2:-1:-1:-1:-0.464844:-0.888672:0.190918:0.4375:0.5625:0.5625
1562065286987014:0:-1:4:0:0:-5:-3:-1:-0.461914:-0.89209:0.191406:-0.25:0.5625:0.375
1562065287039009:0:-3:-5:11:1:-4:-3:-2:-0.464355:-0.887695:0.188965:-0.0625:0.5625:0
1562065287087004:0:1:2:-3:-1:3:3:1:-0.464355:-0.891113:0.190918:0.4375:-0.1875:0.5625
1562065287129000:0:-1:0:-2:-1:-2:-2:0:-0.464844:-0.893066:0.188477:-0.3125:0.4375:0.5
1562065287188994:-1:-4:-1:5:3:1:-2:-2:-0.467285:-0.888184:0.185059:0.5:-0.0625:0.5
1562065287240989:0:-2:2:2:4:0:1:0:-0.462891:-0.882812:0.187988:-0.25:0.375:0.125
1562065287285985:-1:1:1:1:-2:-1:0:-1:-0.469727:-0.883789:0.187988:-0.125:-0.4375:0.0625
1562065287330980:-1:-1:-1:-5:1:-3:0:-1:-0.461426:-0.892578:0.183105:0.25:0.0625:-0.0625
1562065287398973:0:-2:1:1:0:-1:-1:0:-0.471191:-0.884766:0.19043:-0.6875:0.375:-0.1875
1562065287446968:1:-2:-1:-3:-2:-1:-1:1:-0.463379:-0.890625:0.186035:0.4375:0.3125:0.125
1562065287504963:-1:3:0:-4:4:2:1:0:-0.460449:-0.891113:0.186523:-0.5625:0.375:0.25
1562065287548958:-1:2:-2:2:-1:-2:1:0:-0.46582:-0.890625:0.189453:0.5625:0.375:0.1875
1562065287601953:1:0:-1:1:1:-1:-1:-2:-0.468262:-0.88916:0.188477:0.5625:0.375:0.0625
1562065287646948:0:-1:-1:3:3:2:-1:1:-0.469727:-0.885254:0.187012:-0.3125:-0.0625:-0.3125
1562065287706942:-1:-2:-1:-2:-2:-3:-1:-1:-0.467773:-0.889648:0.192871:0.5:0.125:0.125
1562065287759937:-1:-1:-3:2:-5:-2:0:-1:-0.463867:-0.890625:0.1875:-0.375:0.5625:0.3125
1562065287803933:-1:-1:1:-2:-1:-3:-7:1:-0.465332:-0.883301:0.185547:0.25:0.5625:0.0625
1562065287849928:0:-1:-1:-6:0:-2:-1:-2:-0.467285:-0.883789:0.18457:-0.1875:0.3125:0.0625
1562065287909922:-2:-2:0:1:1:-1:-1:-2:-0.469727:-0.881836:0.189453:-0.5:-0.375:0
1562065287961917:0:1:-1:0:-3:-1:4:-1:-0.466309:-0.884766:0.188965:-0.3125:-0.3125:-0.4375
1562065288008912:-1:-1:-1:0:5:1:0:-1:-0.461914:-0.885742:0.186523:-0.4375:-1:-1.125
1562065288066906:-2:-2:-5:0:1:0:-1:-2:-0.472168:-0.888672:0.188477:-0.6875:-1.625:-1.4375
1562065288110902:0:0:1:-1:0:-2:-1:-1:-0.462891:-0.889648:0.191406:-0.1875:-1.6875:-1.1875
1562065288170896:1:-1:2:-2:3:4:-1:0:-0.462891:-0.885742:0.191895:-0.125:-1.0625:-1.125
1562065288219891:-1:-1:0:2:4:0:-1:1:-0.454102:-0.895508:0.186035:-0.125:-0.3125:-1.0625
1562065288269886:-3:-2:1:1:0:-2:-2:-2:-0.462402:-0.884277:0.189453:-0.8125:-0.3125:-1.125
1562065288321881:0:-1:-2:-2:-2:2:-1:0:-0.463379:-0.890625:0.186523:-0.125:-0.5:-0.875
1562065288368876:0:-1:-1:-1:7:4:-3:-1:-0.450684:-0.895508:0.188965:-0.4375:-0.4375:-0.875
1562065288429870:0:0:-1:-1:1:-3:1:-1:-0.460938:-0.891602:0.188477:0.0625:-0.75:-0.5
1562065288478865:-1:-1:-4:-7:2:-1:-3:-2:-0.459473:-0.892578:0.187012:0:-0.1875:-0.25
1562065288531860:-1:0:2:2:-4:-6:-5:0:-0.458984:-0.890137:0.196289:-0.3125:-0.1875:0.0625
1562065288583855:-1:-1:-4:-1:3:0:1:0:-0.460449:-0.898438:0.187988:0.375:0.3125:0.5
1562065288629850:0:-2:0:-1:-3:4:4:1:-0.457031:-0.892578:0.185059:-0.25:0.3125:0.5
1562065288683845:-1:-1:-5:-1:-3:-1:-6:-1:-0.457031:-0.890137:0.185547:0.1875:0.0625:-0.125
1562065288733840:-1:0:0:-3:-3:-4:-4:-1:-0.464355:-0.887207:0.187988:0.0625:-0.3125:0
1562065288785835:0:1:3:0:0:-3:-1:2:-0.460938:-0.890625:0.187988:0.5:-0.5:0
1562065288830830:1:-1:0:0:-6:-1:-6:-1:-0.455566:-0.890137:0.192383:-0.375:-0.3125:-0.0625
1562065288884825:-1:1:-1:-6:-3:0:-1:1:-0.462402:-0.893066:0.183594:0.5:-0.0625:-0.0625
1562065288931820:1:2:0:-6:-9:-3:-2:-3:-0.460938:-0.894043:0.187012:0:-0.3125:-0.25
1562065288991814:0:-1:-2:-5:2:2:5:2:-0.461426:-0.893066:0.184082:0.1875:-0.6875:0.0625
1562065289041809:0:0:1:0:8:-1:-4:-1:-0.460938:-0.889648:0.181641:0.1875:-0.9375:0.0625
1562065289094804:-3:0:0:-1:-1:-4:1:-3:-0.461914:-0.890137:0.193848:-0.625:-0.6875:-0.1875
1562065289146798:0:0:-2:-1:0:-3:-2:-3:-0.463379:-0.888672:0.185059:-0.3125:-0.625:-0.25
1562065289190794:-56:-7:1:7:7:0:-16:-4:-0.463867:-0.897461:0.181152:-0.8125:0.125:0.25
1562065289250788:48:4:-13:-75:-17:-8:1:-1:-0.397461:-1.01416:0.234375:-12.625:7.25:9.125
1562065289304783:-23:-12:5:20:10:1:-2:-2:-0.531738:-0.82666:0.156738:-18.0625:9.25:8.0625
1562065289351778:2:22:15:2:-40:0:5:1:-0.511719:-0.833984:0.171875:25.375:-9.8125:5.5
1562065289393774:-2:-5:-3:16:17:-6:-3:-2:-0.51123:-0.839355:0.243164:12.25:-18.25:7.9375
1562065289454768:-76:3:-7:-74:10:-1:-10:-7:-0.460449:-0.880859:0.260254:4.625:-6.375:-2.4375
1562065289505763:-15:-9:3:10:3:-5:-3:0:-0.465332:-0.850586:0.270508:3.3125:2.4375:-1.4375
1562065289551758:105:0:11:109:51:0:0:1:-0.486328:-0.899902:0.222168:1.3125:3.3125:1.6875
1562065289610752:-32:32:14:-71:-9:12:6:-1:-0.48291:-0.851074:0.231445:1.25:2.125:5.1875
1562065289662747:2:7:13:68:13:2:4:8:-0.496094:-0.87793:0.217773:4.1875:-1.875:4.1875
1562065289708742:-8:7:0:-29:-2:-3:1:-6:-0.47998:-0.858887:0.245605:-0.625:4.3125:1.5625
1562065289754738:17:-7:-8:5:-23:-2:-1:0:-0.49707:-0.856445:0.236816:5.0625:-1.5:-0.25
1562065289813732:14:1:-4:-12:-99:-4:-4:-1:-0.477051:-0.87207:0.257812:-24.3125:0.6875:1.8125
1562065289866726:-1:-5:0:3:26:-6:-7:-4:-0.500977:-0.947266:0.152344:-54.8125:-9.5:-4.5
1562065289917721:7:1:2:2:1:-12:1:1:-0.490234:-0.867188:0.191895:18.8125:0.4375:-10.75
1562065289974716:0:-1:1:5:-3:11:1:0:-0.450684:-0.887207:0.199707:-3.25:1.75:-10.875
1562065290016711:0:-3:-6:-29:-5:-3:-3:-2:-0.477539:-0.90625:0.168457:8:6.375:-4.6875
1562065290076705:0:-3:-6:6:3:1:-2:2:-0.489258:-0.891113:0.151367:9.3125:5.75:-2.0625
1562065290128700:-1:2:1:-1:-2:1:-2:0:-0.463379:-0.894043:0.176758:-1.125:3.8125:0.5
1562065290174696:0:0:-2:11:-9:-3:-1:-2:-0.47998:-0.876953:0.167969:3.5625:-1.3125:0.625
1562065290225691:-2:-3:-5:-10:-14:-8:5:-1:-0.464844:-0.87793:0.184082:-0.875:-2.1875:-0.9375
1562065290274686:0:0:-3:-23:2:1:-3:0:-0.466797:-0.884766:0.186035:2.125:-1.9375:-1.4375
1562065290333680:-1:1:0:3:0:-1:1:-1:-0.465332:-0.886719:0.193848:-1.4375:-1.125:-1.25
1562065290377675:-1:0:0:7:2:-2:-2:0:-0.466309:-0.89209:0.192383:0.25:0.1875:-0.5
1562065290428670:-2:0:-3:-21:-7:-4:0:-3:-0.47168:-0.891113:0.182617:-0.5:0.4375:0.1875
1562065290473666:-1:0:4:7:-2:1:0:-1:-0.467285:-0.883789:0.188477:1.8125:0.5:1.0625
1562065290533660:1:-2:-1:2:4:1:-1:-1:-0.462891:-0.891113:0.19043:-0.375:0.3125:0.4375
1562065290585655:-1:-1:-1:2:-1:-1:-2:-1:-0.469727:-0.885254:0.183105:0.25:0.5625:-0.0625
1562065290639649:-3:-2:0:11:-1:-1:5:-2:-0.469238:-0.887695:0.185059:1.125:0.375:-0.875
1562065290691644:-1:1:0:-6:1:-3:-2:-1:-0.469238:-0.883789:0.191895:0.0625:-0.3125:-1.4375
1562065290737639:-1:0:-2:5:3:1:-5:-1:-0.467773:-0.893066:0.181152:0.125:-1.0625:-0.4375
1562065290788634:-1:0:-3:-3:1:0:4:-1:-0.461426:-0.897461:0.190918:0.3125:-0.6875:0.125
1562065290836629:-1:0:-1:-6:3:2:4:1:-0.46582:-0.890137:0.192383:-0.6875:0.125:0.625
1562065290878625:-1:-1:-4:-4:2:-2:-2:-2:-0.469238:-0.884766:0.182617:0.5625:0.8125:0.5625
1562065290938619:6:-1:0:-3:2:4:3:3:-0.458496:-0.882812:0.1875:0:0.8125:0.4375
1562065290999613:1:0:-1:2:3:0:-2:-2:-0.469727:-0.888672:0.182129:-0.375:-0.0625:0
1562065291051608:-4:-2:-2:1:4:0:1:-3:-0.472168:-0.880859:0.184082:1.1875:-0.875:0.1875
1562065291096603:-1:-1:0:-1:1:2:0:-1:-0.470215:-0.896484:0.1875:0.0625:-0.625:-0.25
1562065291148598:0:1:-1:-1:-1:-1:0:-1:-0.465332:-0.880859:0.184082:0.5625:0.0625:-0.0625
1562065291196593:-1:-2:-4:0:-2:-5:-8:-1:-0.469238:-0.887207:0.188965:0.9375:0.5625:-0.25
1562065291256587:-1:-1:3:-1:-3:0:2:0:-0.47168:-0.881836:0.1875:0.375:0.3125:-0.4375
1562065291299583:0:0:0:2:-4:-1:-4:-3:-0.469238:-0.886719:0.183105:0.0625:-1.125:-1.1875
1562065291359577:-2:-2:-3:0:3:1:6:0:-0.465332:-0.889648:0.183105:-0.625:-1.375:-1.625
