1562064426288904:0:-2:0:-6:1:-6:-2:-1:-0.554199:-0.845703:0.150391:-0.8125:0.1875:-0.5625
1562064426325904:-3:0:-2:0:0:-1:-1:-2:-0.563477:-0.843262:0.148438:-0.75:-0.75:0.625
1562064426386904:1:2:-2:-2:-4:0:2:-2:-0.548828:-0.849121:0.155762:0.5625:-0.1875:0.6875
1562064426438904:0:0:2:-16:-5:-1:0:1:-0.560059:-0.848145:0.155762:-1.5625:0.25:1.4375
1562064426483904:3:-2:-3:-23:0:-1:-3:1:-0.564453:-0.848145:0.161133:-0.375:-0.0625:2.125
1562064426528904:-1:0:3:-19:1:3:0:0:-0.562988:-0.82373:0.166992:0.6875:3.375:0.125
1562064426588904:1:0:0:-18:-4:-1:0:0:-0.574219:-0.849121:0.141602:-1.125:0.125:-0.5
1562064426625904:1:1:0:1:0:0:0:1:-0.569824:-0.833984:0.160156:0.25:0.25:-0.5
1562064426686904:-1:-3:-4:-10:-4:-1:0:0:-0.56543:-0.846191:0.161621:-0.6875:2:-0.8125
1562064426739904:0:0:-2:-11:0:-2:-2:-1:-0.564941:-0.838867:0.143066:-0.875:1.1875:-0.5625
1562064426787904:0:0:-2:-3:-1:-3:-2:-2:-0.561035:-0.842285:0.145996:-0.625:1.0625:-0.5625
1562064426829904:-1:-4:-2:13:0:0:0:-1:-0.56543:-0.839844:0.144043:-0.125:0:-1.4375
1562064426889904:0:-2:-2:-10:-3:0:0:-1:-0.564453:-0.834473:0.146973:-0.375:-0.0625:-1.5625
1562064426941904:-1:2:1:-1:-1:0:0:0:-0.553223:-0.840332:0.145996:1.1875:-1.0625:-1.0625
1562064426985904:-1:-1:-3:-8:-2:-1:-1:1:-0.541016:-0.850586:0.141113:0.1875:-0.75:-1.25
1562064427039904:-1:-1:-3:1:-4:-1:-2:-1:-0.555664:-0.842285:0.151367:2.8125:1.125:0.3125
1562064427086904:0:1:0:3:-5:-3:-2:-1:-0.581055:-0.802246:0.150391:3.625:1.4375:1.25
1562064427129904:0:-1:0:3:3:-1:0:0:-0.584961:-0.952637:0.166504:2.1875:-7.3125:-0.125
1562064427188904:0:-1:0:15:-2:0:0:-2:-0.500977:-0.84668:0.135254:-3.875:-2.75:-2.25
1562064427240904:1:0:1:5:-1:-2:-2:0:-0.601562:-0.857422:0.17041:-1.6875:-3.75:0.0625
1562064427287904:-2:-1:-2:-1:0:-1:-1:-1:-0.602051:-0.816895:0.17041:-3.25:-4.625:3.5
1562064427340904:-1:0:2:4:0:0:-1:-1:-0.566406:-0.848633:0.181641:-4.3125:-2.375:2.875
1562064427390904:0:-2:1:-3:0:-1:-1:-1:-0.566406:-0.819336:0.167969:-1.3125:-0.625:0
1562064427443904:-1:-3:-2:2:-1:-1:0:0:-0.546875:-0.834961:0.151367:-2.6875:0.5:-3.0625
1562064427488904:-3:-1:-4:-16:1:0:0:-1:-0.52832:-0.86084:0.138672:-2.75:0.375:-3.9375
1562064427548904:-2:0:1:8:-2:-1:-1:0:-0.526367:-0.855469:0.13623:-0.875:0.4375:-2.875
1562064427588904:2:0:-1:-5:-1:1:1:-2:-0.532227:-0.861328:0.14502:-1.5625:-0.5625:-0.6875
1562064427646904:0:-2:0:2:0:-1:0:0:-0.551758:-0.851074:0.146484:1.3125:-1.0625:0.6875
1562064427690904:0:-2:-3:-16:1:1:1:1:-0.560059:-0.849121:0.152344:0.0625:-2.375:1.375
1562064427743904:-2:-1:-2:9:-2:-3:-1:-2:-0.560547:-0.843262:0.162109:-1.5625:-1.8125:2.625
1562064427788904:-2:-1:1:2:2:0:-1:-2:-0.569824:-0.831543:0.169434:-1.3125:0.125:3.1875
1562064427841904:-1:0:-3:-10:0:1:-1:-1:-0.55957:-0.845703:0.160645:-3.1875:1:2.75
1562064427889904:-1:0:0:1:0:2:1:1:-0.564453:-0.83252:0.144531:-2.8125:1.5:0.875
1562064427949904:0:0:-2:-5:2:0:-1:-1:-0.567871:-0.837402:0.143066:-2.25:1.6875:-0.75
1562064427991904:-1:-1:-1:-1:-2:-1:0:-1:-0.553711:-0.840332:0.141602:-1.6875:0.5625:-2.375
1562064428043904:-1:0:-2:-3:0:5:1:1:-0.547852:-0.856445:0.142578:-0.875:0.5625:-2
1562064428088904:0:-1:-1:-5:-3:-1:0:0:-0.539551:-0.852051:0.13916:-0.4375:0.25:-0.375
1562064428148908:-1:0:-2:-2:-1:-2:1:-2:-0.54541:-0.850098:0.137207:0.75:0.3125:0.6875
1562064428189912:0:-1:2:5:1:-1:0:0:-0.557617:-0.84082:0.145508:1.8125:0.375:1.9375
1562064428245918:-1:0:-2:-5:2:1:1:0:-0.557617:-0.845703:0.145508:0.5:0.25:2
1562064428290922:0:-2:-2:6:-3:-1:-2:-1:-0.563965:-0.836914:0.152344:0.625:0.25:1.625
1562064428351929:1:0:0:-1:-2:-2:-1:0:-0.571289:-0.841797:0.150391:0.125:0.1875:2.0625
1562064428388932:-1:-2:-2:-2:0:0:-1:1:-0.567871:-0.837402:0.146973:-0.5:0.875:1.4375
1562064428451939:1:0:0:-2:1:-1:-1:-1:-0.567383:-0.836426:0.143066:-1:0.9375:0.1875
1562064428494943:-1:-1:-1:3:-1:1:-1:1:-0.563477:-0.833496:0.13916:-0.625:0.75:-1.375
1562064428554949:-2:-1:1:5:3:-2:-1:-2:-0.557129:-0.844727:0.139648:-1.5:0:-2.875
1562064428590952:1:0:-2:-4:-4:-2:1:1:-0.558105:-0.848145:0.133301:0.125:-0.6875:-2.5
1562064428651959:1:-1:0:6:1:1:-1:-1:-0.552246:-0.849609:0.140137:0.0625:-0.9375:-1.0625
1562064428703964:-2:1:-4:-5:0:-3:-1:-2:-0.539062:-0.853027:0.148926:0.625:0.125:0.25
1562064428751969:-1:-2:1:0:-3:-2:0:0:-0.572754:-0.839844:0.160645:-0.125:0.4375:1.9375
1562064428793973:-1:-2:-1:-4:2:0:-1:0:-0.581055:-0.831055:0.145508:0.625:0.8125:4.75
1562064428853979:0:0:-3:3:-3:-2:-2:-1:-0.573242:-0.82666:0.136719:0.3125:-0.5625:2.4375
1562064428905984:0:0:3:-3:-1:-2:1:-2:-0.555664:-0.841309:0.130859:0.9375:-2.6875:-2.8125
1562064428951989:-2:-1:-1:-3:2:1:0:0:-0.558105:-0.84082:0.13916:1.3125:-3.75:-4.3125
1562064429003994:-2:-2:-1:-6:-1:0:1:0:-0.561035:-0.844727:0.152832:1.375:-2.875:-2.9375
1562064429051999:-1:-2:-2:1:-4:-1:0:1:-0.563965:-0.846191:0.158203:2:-1.6875:-1.5
1562064429095003:-3:-2:0:-2:-3:-1:-1:-2:-0.554199:-0.843262:0.158203:0.6875:-0.125:-2.1875
1562064429154009:0:1:1:1:0:0:1:0:-0.54541:-0.850586:0.151367:0:0.4375:-3.375
1562064429207014:0:-1:0:-3:2:0:0:0:-0.545898:-0.849609:0.152344:0.125:0.1875:-2.125
1562064429251018:-1:-1:-1:3:1:0:0:0:-0.545898:-0.850098:0.157227:0.6875:-0.3125:0.4375
1562064429297023:-1:1:0:1:-1:0:0:-2:-0.543457:-0.852539:0.152832:0.25:-0.625:1.6875
1562064429357029:-1:-1:0:7:-7:-4:-2:-2:-0.555664:-0.844727:0.154297:0.75:-0.375:1.3125
1562064429410034:1:0:0:2:1:0:-2:-2:-0.560059:-0.841309:0.15625:-0.375:-0.8125:1.1875
1562064429454039:1:0:-2:-12:-2:-3:-3:0:-0.556152:-0.839844:0.159668:0.8125:-0.1875:0.6875
1562064429506044:-1:-1:0:3:-5:-1:0:0:-0.556152:-0.839844:0.15918:0.1875:0.0625:-0.125
1562064429555049:-2:-1:-1:3:-6:-3:-1:-1:-0.561523:-0.839355:0.157715:0.25:-0.125:-0.75
1562064429612055:1:0:0:0:1:0:0:-1:-0.550781:-0.839355:0.158691:-0.375:-0.25:-0.8125
1562064429657059:0:1:1:4:-2:0:-2:1:-0.545898:-0.851074:0.161621:0.375:0.5625:-0.9375
1562064429710064:0:-1:-1:3:3:1:0:-2:-0.548828:-0.846191:0.154785:-0.0625:0.875:-0.9375
1562064429755069:-1:0:-1:-3:-2:-1:0:-2:-0.553223:-0.847656:0.155273:0.375:0.625:0.375
1562064429814075:-1:1:-3:-7:-3:-1:-1:-1:-0.543457:-0.84668:0.153809:0.3125:0.375:0.5625
1562064429855079:-1:0:-1:-2:0:-2:0:-1:-0.555664:-0.838867:0.155762:0.4375:0.5:-0.125
1562064429914085:0:-2:-2:-4:-1:1:-1:1:-0.559082:-0.84668:0.155762:0:-0.25:0.0625
1562064429958089:-1:0:2:5:2:0:0:2:-0.552734:-0.845215:0.15332:-0.0625:-0.5625:0.5625
1562064430009094:-2:-2:-1:2:-1:2:0:-1:-0.549316:-0.84082:0.154297:0.8125:-0.125:0.0625
1562064430054099:-1:2:-1:5:-4:-2:0:0:-0.559082:-0.845215:0.155273:-0.125:0:-0.125
1562064430114105:0:0:0:3:0:0:-1:1:-0.555176:-0.84375:0.158203:0.875:0.375:-0.4375
1562064430166110:-4:-3:1:10:5:1:-1:-1:-0.555664:-0.84375:0.155273:-0.375:0.1875:-0.3125
1562064430211114:-1:1:0:2:-1:1:-1:-2:-0.554199:-0.845215:0.156738:0.5:0.3125:0.0625
1562064430257119:-1:-1:1:0:-3:-5:-2:-1:-0.552734:-0.839355:0.149902:-0.1875:0.1875:-0.5625
1562064430317125:0:0:0:-2:1:-2:-3:0:-0.552734:-0.845703:0.160156:0.25:0.25:-0.625
1562064430357129:0:-1:-1:-3:11:0:0:0:-0.54834:-0.851074:0.155762:-0.0625:0.125:0.25
1562064430417135:-1:-1:-2:-4:-5:-1:-1:1:-0.550293:-0.84082:0.150879:0.625:0.3125:0.4375
1562064430460139:0:1:1:-1:2:1:1:-1:-0.554688:-0.845703:0.152344:0:0.1875:0.375
1562064430520145:-2:-2:-3:1:-4:-5:-1:-3:-0.556641:-0.844727:0.15918:0.375:0.0625:-0.0625
1562064430558149:1:2:0:0:6:2:2:0:-0.55127:-0.846191:0.155273:0.0625:-0.125:-0.125
1562064430618155:1:-2:2:-3:0:-1:0:1:-0.557129:-0.841797:0.154297:0.125:-0.1875:-0.3125
1562064430669160:-1:-1:-2:-1:8:1:-1:0:-0.556641:-0.843262:0.152344:0.375:-0.25:-0.1875
1562064430718165:-1:1:-1:-2:5:0:0:-1:-0.55127:-0.847168:0.156738:-0.375:-0.1875:0.25
1562064430759169:0:-1:-1:1:3:2:1:-1:-0.54834:-0.840332:0.152832:-1.0625:0.3125:-0.25
1562064430820175:-88:-38:3:-49:14:7:5:-3:-0.580078:-0.966309:0.0883789:-22.375:-2.5:5.0625
1562064430871180:27:4:-14:92:17:-5:-2:2:-0.526855:-0.722656:0.179199:47.4375:-8.625:17
1562064430917185:10:5:-10:27:8:2:2:-3:-0.493652:-1.00342:0.203125:21.1875:-12.4375:3.3125
1562064430969190:-75:-31:-20:-128:-2:7:-8:20:-0.572754:-0.686035:0.155273:22.9375:-11.5625:5.5
1562064431017195:33:11:15:-96:38:5:5:-10:-0.53418:-0.879883:0.255859:11.75:-8.0625:-4.4375
1562064431073201:92:-16:-42:24:45:13:-12:-24:-0.560059:-0.813965:0.224121:-4.8125:-9.1875:-5.5
1562064431119205:-79:36:82:127:114:-5:23:10:-0.542969:-0.871094:0.217285:3.75:3:-1.625
1562064431171210:-38:-42:-50:-19:-95:-52:-30:-58:-0.563477:-0.833496:0.190918:-15.3125:-6.5625:2.3125
1562064431225216:-86:-8:10:-23:-30:-24:-4:-20:-0.567383:-0.819824:0.197266:-6.5:-0.8125:-0.6875
1562064431276221:77:28:51:67:52:57:33:52:-0.541992:-0.826172:0.20166:-19.1875:0.875:0.25
1562064431322226:-23:5:19:2:5:-6:-1:-21:-0.554688:-0.833984:0.173828:-9.875:-4.1875:-2.5
1562064431374231:-5:2:6:-2:-46:-29:-3:13:-0.49707:-0.838379:0.249023:-30.8125:10.875:-2.625
1562064431420235:-1:-4:0:-1:7:-2:-4:-6:-0.568359:-0.838379:0.0571289:-4:3.8125:-16
1562064431474241:-1:-1:3:0:-3:0:2:13:-0.561035:-0.874023:0.130859:16.875:3.6875:-16.4375
1562064431519245:-3:-1:-4:-31:-3:-7:-4:-6:-0.502441:-0.865234:0.14209:12.9375:5.5625:-10.625
1562064431579251:-1:-5:-4:15:0:-4:-2:-5:-0.520508:-0.897461:0.157227:9.0625:8.375:-4.25
1562064431622256:-1:0:-1:13:9:4:0:-2:-0.512695:-0.84082:0.19043:2.125:3.375:2.0625
1562064431673261:-2:-2:-5:-11:0:-5:-2:1:-0.526855:-0.883789:0.145996:-9.5625:3.4375:2.3125
1562064431722266:0:-1:-6:-20:0:-2:-2:-3:-0.533691:-0.852539:0.134766:4.125:1.25:4.125
1562064431771270:-1:-3:-5:-45:-11:-2:-2:-2:-0.525391:-0.867188:0.161133:-2.6875:-0.8125:3.5625
1562064431826276:-1:1:2:-1:-3:0:-2:-2:-0.525879:-0.85498:0.15625:1.5:0.3125:2.0625
1562064431877281:-2:-1:-1:8:-3:-3:-1:0:-0.532227:-0.851562:0.15332:1.1875:0.6875:0.9375
1562064431925286:-2:-3:-5:-26:-5:-2:-1:-1:-0.531738:-0.86084:0.15332:0.3125:0.75:1.125
1562064431975291:0:1:-1:15:2:-2:1:0:-0.535156:-0.856934:0.159668:1.8125:1:0.8125
1562064432022296:-1:-3:1:-2:1:-1:1:-1:-0.538086:-0.854492:0.149414:-0.125:1.0625:0.75
1562064432082302:0:-2:-1:3:-5:0:0:-2:-0.535156:-0.852051:0.154297:0.5:1:0.875
1562064432131306:0:1:-2:-3:0:4:0:1:-0.53418:-0.850098:0.162109:0.75:0.75:0.625
1562064432176311:0:1:1:-2:2:-3:-3:-2:-0.539062:-0.854004:0.152344:0.5625:0.6875:0.3125
1562064432224316:-2:-6:-4:5:-3:-3:-2:-1:-0.538574:-0.848145:0.159668:0.125:0.375:0.5
1562064432285322:0:0:0:-3:2:0:-1:2:-0.53418:-0.854492:0.154297:-0.5:0.3125:0.125
1562064432334327:-1:0:-1:2:-2:-2:-2:1:-0.535645:-0.854004:0.153809:-0.625:1:-0.25
1562064432385332:-2:-1:4:0:-4:-2:-1:-1:-0.538086:-0.855957:0.153809:-1:0.375:-0.75
1562064432427336:0:-1:-3:-10:-1:-1:-1:1:-0.540527:-0.86084:0.155762:-0.4375:0.5625:-0.6875
1562064432476341:-3:-2:0:5:-3:-4:-3:-1:-0.537109:-0.860352:0.144043:0.375:-0.5:-0.3125
1562064432537347:-1:-1:3:59:5:-1:-1:-1:-0.537598:-0.856445:0.151367:-1.375:-0.5625:-0.375
1562064432584352:-1:-1:1:1:-1:0:1:-1:-0.535645:-0.858887:0.149414:1.1875:-0.5625:0
1562064432634357:-1:-2:-3:6:4:1:-1:0:-0.523926:-0.864258:0.15332:-0.375:-1.5625:0.3125
1562064432685362:0:0:-4:-11:-4:-1:-2:0:-0.537598:-0.851562:0.155273:-0.4375:-0.25:-0.1875
1562064432727366:-1:-4:-1:2:1:-1:0:-1:-0.536133:-0.854004:0.153809:0.25:0.75:-0.4375
1562064432786372:0:0:0:-9:-3:-1:0:0:-0.530273:-0.86084:0.15332:-0.375:0.0625:-0.625
1562064432836377:0:-1:-1:-1:2:3:3:-1:-0.541992:-0.857422:0.151855:-0.125:-0.1875:-0.75
1562064432873381:-1:-2:-1:-2:0:-2:-2:-1:-0.533691:-0.854492:0.156738:-0.0625:0.25:-0.375
1562064432934387:-1:0:0:2:-1:-1:-3:-1:-0.536621:-0.85498:0.147949:0.125:0.4375:-0.75
1562064432986392:-1:-2:2:1:0:-1:-1:0:-0.535156:-0.861328:0.143555:0.125:-0.0625:-0.4375
1562064433039397:0:0:-1:-3:-4:0:0:-2:-0.53418:-0.860352:0.15332:0:-0.125:-0.1875
1562064433087402:-1:-1:2:-3:2:0:0:1:-0.535645:-0.859863:0.153809:-0.0625:-0.0625:-0.5
1562064433137407:-1:-2:1:3:0:-1:0:-1:-0.535156:-0.859375:0.146973:-0.1875:0.125:-0.3125
1562064433188412:1:1:0:-3:0:-2:0:0:-0.533203:-0.857422:0.151367:-0.625:0.1875:-0.0625
1562064433243418:-2:-1:-2:-9:-1:-1:-2:-2:-0.530762:-0.85791:0.15332:1:0.75:0.125
1562064433286422:0:-1:1:-7:0:-1:-1:-3:-0.536133:-0.857422:0.155762:-0.75:1.3125:0.5
1562064433340427:-1:-2:0:-5:-2:1:1:-1:-0.532227:-0.860352:0.149902:-0.0625:1.625:0.75
1562064433386432:-1:-2:-1:2:4:3:1:-1:-0.539551:-0.853516:0.150391:0.375:1.375:0.9375
1562064433437437:0:-2:-1:-6:-3:-4:-1:1:-0.532715:-0.856445:0.148438:0.3125:0.9375:0.375
1562064433496443:-1:1:5:-2:-1:0:2:0:-0.533691:-0.851074:0.148926:0.5:0.9375:-0.3125
1562064433543448:0:0:-3:2:0:-3:-1:-2:-0.541992:-0.859375:0.149414:-0.0625:0:0.0625
1562064433587452:0:0:1:-1:-3:-1:0:-1:-0.535156:-0.85498:0.151367:1.3125:0.125:0.375
1562064433638457:0:0:-1:-6:3:0:-1:0:-0.529785:-0.862793:0.150391:0.5:-0.3125:0.3125
1562064433698463:1:0:2:1:2:2:-1:-1:-0.536133:-0.854004:0.150879:0.25:0:0.1875
1562064433748468:-1:-1:-2:3:1:-1:0:-2:-0.541016:-0.856934:0.155762:0.9375:0.25:0.1875
1562064433797473:0:1:0:-2:0:2:0:2:-0.537109:-0.853516:0.145508:0.375:-0.0625:-0.3125
1562064433847478:-1:-1:-2:1:2:-1:1:-1:-0.539551:-0.85498:0.151855:0.5:0.0625:0.1875
1562064433889482:-2:-3:-4:1:-2:3:1:-1:-0.536621:-0.85498:0.155273:0.1875:-0.25:0.1875
1562064433952489:-3:-4:-3:-1:0:1:1:1:-0.539551:-0.853516:0.15625:0.5625:-0.0625:-0.1875
1562064433999493:-2:-1:-5:0:0:-1:-1:-2:-0.538086:-0.85498:0.152832:-0.375:-0.4375:-0.5
1562064434047498:-1:-2:-2:0:0:-1:-1:0:-0.535645:-0.85498:0.148438:0.375:-0.5625:-0.1875
1562064434088502:0:1:-1:-2:0:-3:-2:0:-0.535645:-0.85791:0.150391:0.5:0.0625:-0.1875
1562064434148508:-1:-3:-1:-8:1:0:1:-1:-0.537598:-0.861328:0.150391:0.25:0.25:-0.0625
1562064434203514:0:0:0:-4:-2:-1:-2:-1:-0.538086:-0.851562:0.149902:0.1875:-0.0625:-0.0625
1562064434250518:0:2:0:-4:1:-1:1:1:-0.542969:-0.855957:0.151855:0.25:-0.0625:0.5625
1562064434299523:1:1:0:-7:-1:1:-2:-1:-0.532715:-0.852539:0.154785:0.3125:0.3125:0.25
1562064434349528:-1:-4:-2:-2:-1:-1:-1:-4:-0.543457:-0.854492:0.153809:-0.4375:0.0625:-0.125
1562064434405534:-2:-3:-7:-3:-5:-1:0:-2:-0.537109:-0.850098:0.150879:0.4375:0.125:0
1562064434449538:-1:-1:-1:4:-2:1:-2:0:-0.533691:-0.858398:0.155273:0.25:0:0.1875
1562064434502544:0:0:-1:1:0:2:0:-1:-0.541504:-0.85498:0.160156:0.5:0.1875:-0.0625
1562064434553549:1:0:0:9:-2:-1:0:-1:-0.537109:-0.853027:0.146484:-0.375:-0.0625:-0.125
1562064434598553:-1:-1:-3:-2:-4:-1:0:0:-0.539062:-0.849121:0.15332:0.4375:0.375:-0.375
1562064434649558:-2:0:1:1:1:-1:0:0:-0.539551:-0.859863:0.152344:-0.3125:0.125:0
1562064434705564:1:0:-1:-3:1:-1:1:0:-0.535156:-0.851562:0.152832:0.5625:0.375:0.5625
1562064434756569:0:0:1:0:0:-2:-3:-2:-0.537109:-0.854004:0.150391:-0.25:0.5:0
1562064434809574:0:-1:-1:-4:1:1:0:-1:-0.54248:-0.852539:0.151855:0.125:0.1875:-0.0625
1562064434848578:0:-2:-2:-4:-2:2:4:0:-0.540527:-0.858887:0.15332:-0.0625:0.0625:0.375
1562064434910584:-1:0:0:-2:0:0:1:0:-0.537598:-0.854004:0.153809:0.0625:0.0625:0.0625
1562064434958589:-1:-3:1:0:0:-1:-1:-1:-0.539551:-0.850586:0.154785:-0.125:0.25:0.125
1562064435011594:2:1:0:-5:-1:-2:0:-1:-0.540527:-0.855469:0.155273:0:0.25:0.3125
1562064435049598:0:2:1:-6:0:-1:-2:-1:-0.540039:-0.853516:0.153809:-0.25:0.1875:0.3125
1562064435108604:0:0:-1:7:1:-1:-2:0:-0.535156:-0.853516:0.14502:0.3125:0.25:0.1875
1562064435162610:0:-3:-2:4:0:-1:2:0:-0.546875:-0.853516:0.151367:-0.25:0.125:-0.5625
1562064435212615:-2:-3:-2:-1:2:2:-2:-1:-0.543945:-0.855469:0.155762:-0.375:-0.1875:-0.4375
1562064435251618:1:-2:-1:0:-4:-2:0:0:-0.540527:-0.849121:0.143555:0.25:-0.25:-0.1875
1562064435311624:-1:0:1:6:-1:-1:0:0:-0.535645:-0.854492:0.152832:0.4375:-0.4375:-0.5625
1562064435364630:1:0:-1:-1:0:0:0:0:-0.540039:-0.851074:0.153809:-0.3125:-0.375:-0.75
1562064435408634:-2:-1:-3:1:-1:-1:0:0:-0.533691:-0.855469:0.152832:0.3125:-0.125:-0.625
1562064435468640:-1:-3:-4:-3:-3:-4:-3:-1:-0.540039:-0.854004:0.149414:-0.3125:0:-0.5
1562064435512645:-2:0:1:-5:2:0:-2:1:-0.537598:-0.856445:0.148438:0:0:0.0625
1562064435567650:0:-1:-2:-4:0:0:-1:-2:-0.537598:-0.858887:0.151855:0.125:0.25:-0.1875
1562064435611654:1:-1:-2:-5:-2:-1:0:-1:-0.539062:-0.854004:0.154297:-0.25:0.1875:-0.5625
1562064435665660:-2:-2:-2:1:-2:-1:-2:-3:-0.535156:-0.85791:0.150391:-0.125:-0.0625:-0.25
1562064435711664:0:0:-3:-6:-2:0:0:-1:-0.536133:-0.855957:0.152344:0:-0.0625:-0.0625
1562064435761669:1:-3:-2:-2:-3:0:0:-2:-0.535156:-0.853516:0.149902:-0.125:0.25:-0.0625
1562064435814675:2:1:-1:-3:-2:-2:-1:0:-0.538086:-0.855469:0.15332:-0.125:0.3125:-0.1875
1562064435867680:-2:0:-1:-10:-4:0:-2:-2:-0.537109:-0.855957:0.15918:0.25:0.4375:-0.3125
1562064435911684:0:-2:2:3:-3:0:-1:0:-0.541016:-0.853027:0.151855:0:0.3125:-0.3125
1562064435952689:0:0:-1:1:4:0:-1:0:-0.543457:-0.85498:0.149414:0.375:0.125:-0.4375
1562064436015695:-1:-1:-6:-1:-1:-5:-2:-1:-0.537109:-0.856445:0.155762:-0.1875:0.5:-0.9375
1562064436070700:-1:-1:-1:-5:2:0:-1:0:-0.540527:-0.858398:0.146484:-1.1875:0.5625:-0.8125
1562064436114705:-1:2:1:4:0:1:-1:0:-0.534668:-0.853516:0.144531:-0.5:0.375:0.375
1562064436166710:0:1:4:-2:5:-1:-3:0:-0.525391:-0.859375:0.153809:0.9375:0.25:0.8125
1562064436211714:-1:0:-3:7:-1:-1:1:-2:-0.541504:-0.85498:0.151855:-0.0625:0.375:0.75
1562064436271720:-50:-14:-17:-8:23:11:34:-8:-0.542969:-0.867188:0.144043:-0.125:-5.125:3
1562064436323726:56:15:61:90:-16:6:1:11:-0.504395:-1.03467:0.157715:-31.625:-9.25:24.8125
1562064436374731:5:0:-9:-109:31:13:-3:8:-0.498047:-0.929688:0.109863:-36.6875:-20.375:15.9375
1562064436414735:18:9:42:33:-83:11:7:11:-0.664062:-0.733887:0.137207:33.1875:3.0625:-6.4375
1562064436473741:53:14:24:-71:-14:-18:-4:-2:-0.559082:-0.904785:0.252441:-17.0625:-4:-0.75
1562064436514745:48:-23:-25:59:38:1:3:-38:-0.574219:-0.786621:0.155273:14.5625:0.4375:-5.8125
1562064436574751:59:-6:-46:-83:36:32:23:52:-0.517578:-0.956055:0.219727:10.625:10.3125:13
1562064436624756:33:-21:-55:99:31:-16:-5:10:-0.585938:-0.741699:0.124512:19.6875:4.9375:5.1875
1562064436673761:89:12:24:-109:-80:-20:-3:11:-0.578125:-0.820312:0.194824:6.375:-3.5:0.25
1562064436713765:-98:11:14:-128:-68:3:8:-16:-0.556152:-0.79834:0.193848:-5:-2.9375:-6.8125
1562064436773771:63:21:37:46:23:-4:-12:-47:-0.542969:-0.813477:0.150391:-7.375:-4:-4.9375
1562064436814775:25:22:97:-41:-13:20:4:-59:-0.541016:-0.899902:0.208984:-4:0.8125:-3.25
1562064436874781:-74:-17:-18:-45:-40:1:1:-4:-0.539062:-0.828613:0.192871:-11.9375:-2.625:3.375
1562064436916785:-42:-15:6:-46:-29:2:-18:-22:-0.538086:-0.838867:0.167969:-20.375:2.625:1.125
1562064436976791:-2:28:-5:-41:-37:7:0:3:-0.577637:-0.830566:0.132812:-26.125:4.125:-3.625
1562064437013795:-11:-6:-10:-13:-9:-11:-4:-11:-0.571777:-0.838379:0.0996094:7.3125:0.25:-10.625
1562064437081801:1:-1:7:54:10:8:-3:-11:-0.523926:-0.854004:0.166992:18.5:4.75:-14.5625
1562064437127806:0:-1:2:-30:-4:2:1:3:-0.510742:-0.881348:0.154297:14.375:4.125:-6.9375
1562064437177811:-1:-1:-3:-7:-8:1:1:-2:-0.520996:-0.847656:0.190918:2.8125:6.875:-2.375
1562064437216815:-2:0:-3:-5:1:-1:-1:-4:-0.531738:-0.858887:0.132324:-11.3125:6.9375:3.625
1562064437275821:0:-2:-4:-15:-6:1:-1:0:-0.555664:-0.85791:0.117188:3.75:1.3125:3.625
1562064437329826:-2:-2:-3:-11:-2:-4:-3:-1:-0.532227:-0.862793:0.133789:0.125:-2.1875:2.3125
1562064437374831:-1:0:1:8:7:-4:-2:-1:-0.536133:-0.851562:0.145508:1.4375:-2.375:-1.0625
1562064437426836:1:0:1:0:-1:0:1:-2:-0.527344:-0.867188:0.162109:-0.125:-1.25:-1.875
1562064437486842:1:0:-3:1:-2:-3:0:0:-0.529785:-0.875:0.148438:0.0625:0.9375:-1.5
1562064437537847:0:-1:-2:-9:0:2:0:-2:-0.536133:-0.849121:0.153809:-0.3125:0.4375:-0.6875
1562064437577851:-1:-3:-1:-5:-2:4:1:-1:-0.529785:-0.862793:0.150391:-1.125:1.25:-0.375
1562064437636857:0:0:1:10:-4:-1:0:-1:-0.541504:-0.856445:0.141602:0.875:1.0625:0.5625
1562064437677861:-2:1:-1:-1:0:-1:-1:0:-0.540527:-0.854492:0.150391:-0.5625:-0.9375:0.625
1562064437737867:-1:-2:-3:-5:3:1:-1:-1:-0.527832:-0.862793:0.154785:0.125:0.625:-0.4375
1562064437786872:-1:1:-1:0:2:1:-1:1:-0.539551:-0.853516:0.141602:-0.125:0.875:-0.5625
1562064437838877:-1:-3:-7:-70:-10:3:1:-1:-0.53418:-0.855469:0.154297:-0.6875:0.9375:0.25
1562064437875881:-1:-1:2:19:2:-1:-1:-2:-0.532715:-0.861816:0.140625:0.0625:0.8125:0.375
1562064437936887:1:2:3:1:7:-1:0:-1:-0.537109:-0.854492:0.148438:0.125:0.625:-0.125
1562064437989892:-2:-2:1:5:1:2:-1:-2:-0.530273:-0.86377:0.143066:0.6875:0.5:-0.875
1562064438039897:-1:-1:-1:-34:-2:1:-2:-1:-0.532715:-0.858887:0.146973:0.9375:0.25:-0.5625
1562064438078901:0:0:0:15:-4:1:-1:-1:-0.531738:-0.862793:0.145996:-1.375:0.125:0.125
1562064438138907:-1:1:-3:-3:-2:2:3:-2:-0.532227:-0.85498:0.145508:0.375:0.0625:0.5
1562064438192913:-1:1:2:32:0:-1:-1:0:-0.535645:-0.856934:0.146484:0.0625:0:-0.5625
1562064438236917:0:0:0:12:1:-3:0:0:-0.539551:-0.856445:0.145996:0.125:-0.4375:-1.125
1562064438289922:1:-1:-1:-13:-1:-2:-1:-1:-0.528809:-0.859863:0.145996:0.4375:-0.875:-0.8125
1562064438339927:-1:0:-2:2:-7:-3:-2:-1:-0.529297:-0.85791:0.147949:-0.6875:-1.0625:-0.5625
1562064438378931:-1:-1:0:-2:-2:0:-2:-2:-0.529785:-0.863281:0.145508:-0.5:-1:-0.6875
1562064438438937:0:-2:-2:0:1:-4:-2:-1:-0.53125:-0.85498:0.148438:-0.9375:-0.4375:-0.1875
1562064438479941:0:-1:-1:1:1:-1:0:0:-0.527832:-0.864258:0.149902:-0.6875:-0.125:-0.125
1562064438539947:1:1:0:-3:8:4:-1:1:-0.529785:-0.856934:0.14209:-0.25:0.375:-0.0625
1562064438576951:-2:-2:-4:-5:-5:-1:-1:-1:-0.53418:-0.861328:0.14502:0.8125:0.0625:0.0625
1562064438640957:-2:0:1:-10:-5:1:1:-1:-0.520996:-0.860352:0.138672:-0.0625:0.125:-0.5
1562064438693963:0:-2:0:25:-1:-2:1:0:-0.532715:-0.865234:0.152344:-0.25:0.125:-0.1875
1562064438738967:-1:0:-1:8:1:-1:0:-2:-0.536621:-0.861816:0.145996:0.4375:0.125:-0.125
1562064438794973:-1:-4:-4:8:-1:-1:0:0:-0.527832:-0.867188:0.139648:-0.25:0:-0.5
1562064438838977:0:-1:1:2:-2:-1:0:0:-0.529785:-0.861816:0.146973:-0.125:0.0625:-0.625
1562064438880981:0:-1:0:8:-1:-1:-2:-1:-0.52832:-0.86084:0.140625:-0.1875:0.0625:0.0625
1562064438942988:-1:0:0:2:-4:-3:-2:-2:-0.525879:-0.857422:0.138184:0.5:0.5:-0.125
1562064438993993:-1:-1:2:-5:2:-2:0:0:-0.528809:-0.860352:0.152344:-0.4375:-0.4375:0.125
1562064439038997:-2:0:-2:-3:6:3:0:1:-0.527344:-0.859375:0.146484:0.0625:0.8125:0.125
1562064439095003:-1:-1:1:0:-1:-2:-1:-3:-0.528809:-0.867676:0.141602:-0.5625:0.5:0
1562064439140007:-1:0:-2:-15:2:-1:-1:0:-0.529297:-0.86084:0.147461:-0.4375:0.625:0
1562064439198013:0:0:0:-3:0:-1:0:-1:-0.530273:-0.866211:0.150391:0.5625:0.625:0.375
1562064439242017:0:-1:-2:4:-6:3:0:-1:-0.528809:-0.862305:0.140625:0.5625:0.5625:0.5
1562064439279021:-1:-2:-6:-19:-5:-2:0:-1:-0.529297:-0.861328:0.134277:-0.125:0.625:0.625
1562064439339027:-1:0:0:2:1:-3:-1:0:-0.52832:-0.858398:0.146973:0.1875:0.4375:0.75
1562064439399033:-2:0:-1:-3:1:1:0:0:-0.529297:-0.863281:0.150391:0.4375:0.5:0.625
1562064439440037:-1:0:1:4:3:-1:0:0:-0.534668:-0.856445:0.144043:0.125:-0.125:0.3125
1562064439501043:0:0:2:0:-7:-2:0:0:-0.536133:-0.862305:0.142578:0.25:-0.125:0.375
1562064439541047:1:-1:-2:-1:5:1:-2:0:-0.53418:-0.859375:0.146484:-0.5625:-0.125:-0.4375
1562064439595053:0:-4:0:-3:-3:1:0:0:-0.536133:-0.859863:0.146484:-0.4375:-0.1875:-0.25
1562064439655059:-1:0:-1:-4:-1:-3:2:1:-0.532715:-0.85791:0.139648:0.0625:-0.25:-0.3125
1562064439699063:-1:-1:-1:-2:0:-2:1:-1:-0.529297:-0.862305:0.147949:-0.0625:-0.5625:-0.0625
1562064439745068:-1:-1:0:0:-1:-2:-1:-1:-0.538086:-0.85498:0.147949:0.4375:-0.375:0.125
1562064439804074:-2:-1:-2:0:4:1:2:0:-0.530762:-0.853516:0.143066:0.125:-0.1875:-0.25
1562064439859079:0:2:1:-3:1:-1:0:-1:-0.532715:-0.863281:0.145996:0.875:-0.1875:-0.125
1562064439902083:1:0:0:2:-1:-1:-1:-2:-0.533691:-0.861328:0.146973:-0.25:0.0625:0.6875
1562064439954089:0:-2:-2:4:0:-2:0:1:-0.52832:-0.86377:0.147461:0:0.375:0.625
1562064440005094:-1:0:0:0:-1:0:1:0:-0.532715:-0.858887:0.143066:-0.4375:0.5625:0
1562064440059099:1:0:0:1:1:-1:-1:0:-0.536621:-0.855469:0.145996:0.5:0.25:-0.25
1562064440104104:0:0:-1:1:0:2:-1:-1:-0.53125:-0.861328:0.144043:0.0625:-0.3125:-0.1875
1562064440156109:-1:-2:-1:-2:0:1:0:1:-0.527832:-0.859375:0.141113:0.625:-0.3125:-0.25
1562064440201113:-2:-2:-1:-3:0:-3:-1:-1:-0.532715:-0.86084:0.150391:0.6875:0.1875:-0.3125
1562064440262119:1:-2:0:0:-2:0:1:1:-0.528809:-0.855957:0.148438:0.0625:0.125:-0.125
1562064440303124:-1:2:-1:-9:-2:-2:-2:-2:-0.533203:-0.860352:0.143066:0.3125:0.25:0
1562064440362129:-1:-3:-1:4:-2:-1:-1:-2:-0.52832:-0.859375:0.146484:0.0625:0.125:0.0625
1562064440404134:-1:-1:-1:3:2:0:0:1:-0.535645:-0.857422:0.143066:-0.1875:0:0.1875
1562064440456139:0:-1:0:1:0:0:-1:0:-0.524902:-0.858398:0.148438:0:0.1875:0
1562064440501143:0:1:0:9:3:1:-1:0:-0.539062:-0.856934:0.146484:-1.5:0.1875:-0.125
1562064440561149:-1:-4:1:5:-3:-4:-1:-1:-0.537598:-0.855957:0.150879:0.3125:0.375:0.3125
1562064440607154:-1:1:-2:-7:-3:-1:0:0:-0.535645:-0.860352:0.145508:-0.3125:0.25:0.3125
1562064440660159:-2:-1:0:-1:-2:0:-2:-2:-0.529785:-0.863281:0.141113:0.5625:0.0625:-0.25
1562064440704164:-1:0:-2:1:2:-1:0:-1:-0.535156:-0.861328:0.148926:-0.5:-0.1875:0
1562064440764170:-1:-1:-4:-2:1:-2:-1:-1:-0.53125:-0.858887:0.149902:0.6875:0.375:-0.125
1562064440816175:-1:-3:-2:-6:4:-1:-2:-3:-0.52832:-0.865723:0.147949:-0.875:0.1875:-0.125
1562064440865180:0:0:0:-4:-5:-1:-3:0:-0.538086:-0.85791:0.141602:-0.1875:0.4375:0.6875
1562064440907184:-2:0:-1:2:10:3:-1:0:-0.530762:-0.862305:0.146973:-0.125:0.5625:0.375
1562064440967190:0:-1:-1:1:-2:-3:-1:-1:-0.535156:-0.85498:0.143066:-0.375:0.25:0.125
1562064441019195:-1:-1:-1:-3:-9:-4:-2:-2:-0.535645:-0.858887:0.144043:-1.25:-0.375:0.125
1562064441064200:-58:0:38:94:-54:-1:-7:-4:-0.535645:-0.875488:0.130859:-4:0.3125:0.5625
1562064441117205:102:17:3:-70:-46:31:20:67:-0.709473:-0.515625:0.0908203:44.75:1.8125:17.75
1562064441164210:4:-13:-40:-34:101:52:29:62:-0.753418:-0.625977:0.0366211:3.25:1.4375:6.6875
1562064441206214:20:30:17:-78:-100:23:23:-8:-0.604004:-1.04736:0.131348:2:-8.25:-2.0625
1562064441267220:55:-38:-50:64:104:-15:-54:-45:-0.657715:-0.626953:0.257324:-2.0625:9.125:-15.125
1562064441319225:70:40:-69:-50:-47:41:12:96:-0.558594:-0.811523:0.10791:16.3125:0.875:-3.5625
1562064441364230:-128:54:-37:-128:25:42:19:89:-0.507812:-0.911621:0.108887:-25.1875:-3.3125:-12.125
1562064441416235:127:120:85:64:37:-11:41:105:-0.55127:-0.811035:0.139648:-1.5:3.5625:-9.375
1562064441470240:86:-114:-44:-26:20:60:19:49:-0.543457:-0.923828:0.108887:-2.0625:-2.1875:-10.4375
1562064441507244:-74:-103:-26:46:23:-8:-79:-103:-0.481445:-0.84668:0.118652:-2.9375:5.9375:-5.3125
1562064441566250:119:63:-59:127:10:-10:25:-6:-0.555664:-0.852051:0.136719:8.0625:3.1875:-0.9375
1562064441619255:82:-32:-87:-34:-17:-68:-58:-79:-0.557129:-0.904785:0.146484:5.5:-2.875:-3.75
1562064441667260:63:80:64:-22:66:66:-21:20:-0.510742:-0.953613:0.0620117:-7.875:-7.875:-3.6875
1562064441710264:-55:-3:20:30:11:-15:1:32:-0.474609:-0.837402:0.189941:-4.125:2.5:-2.375
1562064441773271:44:36:-4:-36:6:16:61:24:-0.543457:-0.929688:0.0195312:-1.9375:-7.8125:-0.4375
1562064441822275:-30:-101:-15:-34:-64:-17:-15:-41:-0.46582:-0.876953:0.153809:-8.6875:4.9375:0
1562064441866280:-5:55:7:-59:18:6:-7:-7:-0.544434:-0.869141:-0.012207:0.4375:-0.75:-4.625
1562064441926286:-2:-18:1:27:11:1:2:4:-0.507812:-0.839844:0.195312:39.375:1.8125:-13.3125
1562064441966290:-3:1:-7:-63:-10:-2:-8:-1:-0.477051:-0.915527:0.110352:16.875:9.1875:-8.75
1562064442009294:-1:-5:-4:-25:-7:-2:-1:3:-0.46582:-0.898926:0.189941:30.3125:13.0625:0.5
1562064442069300:-1:3:4:5:4:1:-1:-2:-0.489258:-0.791504:0.131836:-15.3125:4.75:-1.25
1562064442122305:-1:0:2:16:-1:-3:-2:-1:-0.532715:-0.969238:0.126465:-6.5:3.5:1.0625
1562064442166310:-2:1:-3:-61:-4:-4:-3:-3:-0.489746:-0.854004:0.15332:-2.25:-2.1875:5.8125
1562064442227316:-1:-2:0:22:5:1:0:-1:-0.498047:-0.895996:0.137695:-5.375:-1.75:4.6875
1562064442267320:-2:0:-1:7:-6:-7:-3:-2:-0.503906:-0.855469:0.131836:1:-1.625:3
1562064442327326:-2:0:0:4:6:-1:-2:0:-0.513184:-0.874512:0.144531:-1.25:-2.375:1.75
1562064442369330:-1:-3:-2:-3:-1:1:-1:0:-0.496094:-0.882324:0.149902:1.625:-0.9375:0.6875
1562064442429336:1:-1:-2:-5:4:-2:-1:-2:-0.510254:-0.875:0.143555:-0.625:-1.125:0.3125
1562064442467340:-2:-1:-3:-31:-10:0:-2:-2:-0.510742:-0.876465:0.151855:-1.0625:-2.0625:1.4375
1562064442527346:-1:0:0:13:-1:-1:-1:-1:-0.508301:-0.870605:0.150391:0.125:-2.0625:1.3125
1562064442579351:-1:0:-1:-11:-4:0:0:-1:-0.511719:-0.875:0.152344:-0.125:-0.6875:1.0625
1562064442624356:0:-3:-2:-4:2:1:1:-1:-0.512695:-0.872559:0.146484:-0.5:-0.25:0.625
1562064442669360:-1:1:-2:0:10:3:0:1:-0.513672:-0.873535:0.151855:-0.1875:-0.3125:-0.3125
1562064442729366:0:-2:-2:0:-1:2:0:0:-0.509277:-0.873535:0.149414:0.5:0.125:-0.3125
1562064442782371:-1:-2:-1:7:-5:-1:-2:0:-0.508789:-0.879395:0.140137:-0.125:0:-0.25
1562064442830376:-2:0:-2:-10:7:0:-4:-1:-0.505371:-0.869141:0.14209:0:-0.375:-0.0625
1562064442873381:1:-1:-2:-27:-3:2:0:0:-0.512207:-0.873535:0.148438:-0.0625:-0.3125:0.1875
1562064442932386:-1:-1:-1:4:-4:-2:1:0:-0.504395:-0.869141:0.151367:0.0625:-0.3125:0.6875
1562064442983392:-1:0:-1:-4:-4:-3:-2:-2:-0.509277:-0.873047:0.145508:0.25:-0.375:1
1562064443029396:0:2:1:-1:-1:4:2:-1:-0.512207:-0.872559:0.150391:0.3125:-0.375:0.875
1562064443082401:0:-1:1:-1:-3:-3:-3:-1:-0.510742:-0.876465:0.149414:0.125:0.0625:0.5
1562064443129406:-2:-4:-2:-5:-7:3:0:-2:-0.51416:-0.875:0.156738:0:-0.0625:0.75
1562064443187412:-1:0:0:-1:2:1:0:0:-0.517578:-0.874023:0.153809:0.125:-0.125:0.625
1562064443232416:-1:1:-1:-38:2:-2:-2:0:-0.508789:-0.873535:0.150391:-0.625:-0.125:0.4375
1562064443283422:0:-1:0:4:-5:-2:0:0:-0.517578:-0.869629:0.149414:0.0625:0.1875:0.25
1562064443329426:1:2:-2:12:2:2:0:1:-0.514648:-0.869629:0.147461:-0.6875:0:0.25
1562064443381431:0:-1:0:-7:-1:-1:0:-1:-0.513184:-0.871582:0.151367:0.5:-0.125:0.4375
1562064443438437:-1:-2:0:1:-6:-1:-1:-1:-0.510742:-0.874023:0.149414:-0.5625:0:0.25
1562064443487442:-1:1:0:10:3:1:0:-1:-0.518555:-0.867188:0.145996:-0.125:0.1875:0.3125
1562064443532446:0:-1:-2:3:-8:0:0:0:-0.51123:-0.873047:0.149902:0.375:0.25:0.0625
1562064443585452:-1:-1:0:4:0:1:0:-1:-0.515137:-0.870605:0.15332:-0.3125:0:0
1562064443633457:-1:-2:-1:-1:1:-1:-1:0:-0.518555:-0.869629:0.151367:0.5:0.125:0.5625
1562064443692462:0:1:4:1:-6:2:1:0:-0.512695:-0.868652:0.154785:0.1875:0.1875:0.1875
1562064443734467:-2:-3:-2:-1:7:-3:-3:-3:-0.520508:-0.869141:0.150391:-0.25:0.1875:-0.25
1562064443787472:1:0:0:2:-4:-2:0:-1:-0.515137:-0.867188:0.149414:0.1875:-0.0625:-0.25
1562064443833477:-2:-1:2:-2:-1:-1:-1:0:-0.51416:-0.868652:0.144531:-0.25:-0.25:-0.25
1562064443893483:0:-1:-1:-1:-6:-2:-2:1:-0.51416:-0.870117:0.151367:-0.125:-0.375:-0.4375
1562064443943488:0:-1:-1:0:3:1:-2:0:-0.513184:-0.870605:0.151367:-0.4375:-0.25:-0.5
1562064443992492:0:-1:0:-3:-3:-1:0:0:-0.507324:-0.875488:0.149414:0.3125:-0.0625:-0.5625
1562064444034497:-2:-1:-1:-1:-4:0:-1:0:-0.512207:-0.869141:0.154785:-0.875:-0.0625:-0.4375
1562064444094503:-1:0:-1:1:-3:0:-1:-1:-0.511719:-0.864258:0.145508:0.0625:0.125:-0.125
1562064444147508:0:1:2:7:-2:0:-2:0:-0.503906:-0.871094:0.147949:-0.1875:0.5:0.0625
1562064444192512:1:0:0:-2:-2:0:1:0:-0.518555:-0.872559:0.151855:-0.8125:0.4375:-0.25
1562064444244518:-2:-3:-4:1:-1:-6:-2:-1:-0.519043:-0.874023:0.147461:-0.375:0.1875:0.0625
1562064444297523:-2:-2:-1:-1:-1:2:-1:0:-0.513672:-0.874512:0.147949:-0.125:-0.25:-0.1875
1562064444349528:0:1:1:-2:10:2:-1:0:-0.507324:-0.868164:0.146484:-0.3125:-0.3125:-0.5
1562064444395533:-2:-3:-4:-6:4:-2:-1:-2:-0.510742:-0.871582:0.14502:-0.75:-0.3125:0.25
1562064444446538:-2:-2:1:-1:-9:-1:-1:0:-0.513184:-0.868652:0.149902:0.125:0.1875:-0.125
1562064444495543:-1:2:0:-3:-1:-3:0:0:-0.514648:-0.874023:0.155273:-0.75:0.375:0
1562064444537547:-3:-2:1:1:0:-3:-3:-2:-0.513672:-0.871094:0.146973:-0.125:0.625:0.3125
1562064444597553:1:-1:0:0:4:3:-1:1:-0.508789:-0.871094:0.144043:-0.4375:0.625:0.3125
1562064444649558:0:1:-4:-3:-7:-4:0:-1:-0.51416:-0.871582:0.150391:-0.5625:0.4375:-0.1875
1562064444694563:0:-2:-1:0:3:3:-1:-1:-0.513184:-0.874023:0.154297:-0.3125:0.25:0.125
1562064444747568:-2:-1:-3:-2:-1:0:2:1:-0.506348:-0.873535:0.155762:-0.0625:0.3125:0.4375
1562064444795573:0:1:-1:0:6:1:-2:-2:-0.511719:-0.870117:0.14209:-0.0625:0.5625:0.3125
1562064444837577:-1:0:-2:-1:0:-1:-1:-2:-0.515137:-0.871582:0.140625:-0.3125:0.625:0.5
1562064444896583:0:-1:-1:-1:-5:-2:0:0:-0.512695:-0.872559:0.148926:0.25:0.625:0.375
1562064444949588:1:-2:0:1:9:1:-1:0:-0.517578:-0.866699:0.148438:0.0625:0.1875:0.5
1562064444994593:0:-1:-1:0:3:0:0:-1:-0.51123:-0.875977:0.146484:0.5625:-0.375:0.9375
1562064445047598:-2:-2:-1:-1:-2:1:1:2:-0.510254:-0.870117:0.146973:-0.375:-0.125:0.875
1562064445094603:-1:1:1:-1:-4:-4:-2:-1:-0.522949:-0.871094:0.151367:-0.375:0.0625:0.1875
1562064445154609:1:-1:-2:-4:2:0:0:-1:-0.514648:-0.874023:0.148926:0.5625:0.375:-0.0625
1562064445197613:-3:-2:0:1:-11:-4:-2:-1:-0.511719:-0.875488:0.142578:-0.0625:0.25:-0.1875
1562064445249618:0:-2:-2:1:-1:-2:-2:0:-0.515625:-0.870605:0.155762:0:-0.0625:0.125
1562064445294623:-1:-2:-1:-3:-6:-1:0:-2:-0.512207:-0.872559:0.148438:0.375:0.125:0.3125
1562064445357629:0:0:0:-4:-9:0:-2:-2:-0.51709:-0.871582:0.152832:-0.25:0.0625:-0.375
1562064445407634:-1:0:-4:-1:0:0:0:-1:-0.518066:-0.868652:0.150391:0.25:0.1875:0.25
1562064445451638:0:1:2:-2:-9:0:1:0:-0.51123:-0.870605:0.148438:0.0625:0:0.25
1562064445499643:-1:-3:0:2:5:1:-1:-2:-0.51416:-0.869629:0.14502:-0.3125:0:0
1562064445549648:0:-2:-1:-1:-1:0:-3:0:-0.516113:-0.868164:0.155762:0:-0.0625:0.125
1562064445609654:-2:-1:-1:0:5:-2:-3:0:-0.511719:-0.870117:0.152832:-0.0625:0.125:0.0625
1562064445661659:0:0:2:1:0:0:-1:-1:-0.51709:-0.871094:0.154785:-0.25:0.25:-0.0625
1562064445702663:-1:-2:-1:-1:7:2:-1:-1:-0.516113:-0.869629:0.15332:-0.125:0.1875:0.3125
1562064445751668:-1:0:-2:-1:-5:-2:-1:-1:-0.517578:-0.871094:0.143066:-0.625:0.375:0.1875
1562064445800673:-1:-3:1:1:13:4:1:-3:-0.518555:-0.871094:0.146484:-0.5:0.3125:-0.1875
1562064445860679:-68:24:52:80:3:2:5:-1:-0.533691:-1.06494:0.012207:-40.6875:-3.9375:8
1562064445908684:-99:-9:15:85:78:25:15:-31:-0.574707:-0.644043:0.163086:51.375:-9.3125:17.5625
1562064445954689:127:27:22:-26:-28:-21:20:26:-0.592773:-0.732422:0.211914:-6.75:2.5:-2.875
1562064446001693:-114:-12:-28:-92:44:-2:-16:-101:-0.584961:-0.992676:0.125488:-34:0.625:6.125
1562064446062699:18:6:87:-43:-18:9:43:2:-0.544434:-0.725098:0.172363:-19.625:2.4375:-16.9375
1562064446111704:-101:-50:-59:-126:26:-32:-32:-28:-0.529785:-0.947266:0.145996:2.4375:-12.5:-16
1562064446163710:-49:-18:-6:63:-91:-40:-22:-20:-0.463379:-0.95166:0.194824:-3.9375:1.8125:-13.375
1562064446209714:83:39:-50:64:55:-26:-66:-27:-0.472656:-0.880371:0.143555:1.9375:-2.375:-9.6875
1562064446269720:92:-16:5:-90:-113:-9:4:31:-0.504883:-0.93457:0.168457:4:2.1875:-0.5
1562064446314725:59:-68:54:79:62:1:14:37:-0.48291:-0.871582:0.154785:-8.125:2.5:2.75
1562064446362729:24:77:-24:-38:78:10:73:-11:-0.5:-0.830078:0.0898438:-11.8125:-2.625:-0.75
1562064446411734:-61:-1:-56:-107:-79:9:2:20:-0.496582:-0.890137:0.164062:-0.4375:6.4375:2.3125
1562064446462739:16:-42:-65:-9:-84:-27:19:-127:-0.521484:-0.90625:0.139648:-3.0625:0.75:0
1562064446517745:18:15:-21:-41:-45:4:-9:10:-0.481445:-0.878418:0.135254:-10.6875:-2.75:-2.25
1562064446565750:6:-31:-14:-65:-31:21:83:-3:-0.499023:-0.900879:0.194336:4.6875:4.1875:-1.5625
1562064446616755:94:0:28:-45:-75:24:29:46:-0.519043:-0.883301:0.104492:-6.8125:-4.3125:-5.5
1562064446662759:-112:-21:-6:122:85:47:-19:12:-0.493164:-0.895508:0.0898438:-2.875:-2:-5.5
1562064446712764:53:31:87:-25:17:-1:14:-7:-0.458008:-0.881348:0.138184:-0.1875:2.75:-2.125
1562064446771770:-86:11:11:85:19:-2:12:-106:-0.513672:-0.930664:0.140137:7.3125:0.8125:-2
1562064446822775:95:6:-27:-37:-7:-27:6:81:-0.491211:-0.90918:0.0688477:-9.75:-4.9375:1
1562064446864780:-108:-41:-55:9:28:4:17:11:-0.521973:-0.883789:0.189453:-15.3125:-0.0625:4.875
1562064446914785:-98:-31:10:67:-92:26:-9:-16:-0.518555:-0.902832:0.0898438:-5.125:-3:-5.5625
1562064446962789:-17:-21:-65:13:-33:-32:-17:-52:-0.529297:-0.874023:0.108398:7.25:0.375:-0.4375
1562064447022795:5:127:-23:-3:-45:10:0:8:-0.456055:-0.882324:0.154785:-16.3125:-8.6875:-0.625
1562064447071800:3:-9:-7:-30:-22:1:-4:4:-0.522949:-0.935059:0.0527344:-8.9375:-13.3125:-5.9375
1562064447124806:0:7:-5:92:-11:-13:-4:1:-0.462402:-0.793457:0.175293:47.625:-4.9375:-11.5625
1562064447165810:-1:2:-3:31:11:-2:-1:1:-0.435547:-0.906738:0.236816:14.8125:3.375:-10.6875
1562064447225816:0:5:1:-17:12:-2:0:0:-0.458984:-0.915527:0.196777:23:17.8125:1.1875
1562064447274821:1:1:-2:4:-5:-2:-1:2:-0.480469:-0.837402:0.151855:-6.1875:13.9375:5.4375
1562064447321825:-1:3:-2:-17:-4:-2:-2:-1:-0.49707:-0.911621:0.173828:-5:8.625:6.5625
1562064447363830:0:3:-1:7:-3:-1:0:3:-0.481445:-0.856934:0.166992:-2.875:6.5625:3.5625
1562064447424836:-1:1:-1:-4:-7:0:0:-3:-0.492188:-0.893555:0.147949:-4.125:1.625:1.25
1562064447476841:-2:-1:0:2:-2:-5:-2:-1:-0.477051:-0.889648:0.15625:-2.3125:2.1875:0.5
1562064447524846:-1:-1:-1:-9:-2:1:0:1:-0.48584:-0.87793:0.15332:0.1875:1.75:-0.125
1562064447574851:1:0:2:-1:12:1:0:1:-0.485352:-0.875977:0.148926:-2.1875:-0.75:0.375
1562064447625856:0:-1:1:0:-5:0:-2:0:-0.490723:-0.886719:0.155273:-1.0625:-0.5625:0.3125
1562064447664860:-1:1:0:-1:-5:2:0:-1:-0.484375:-0.887207:0.147949:-2.0625:-0.8125:0.875
1562064447723866:0:0:-2:-3:1:-4:-1:-1:-0.489258:-0.89502:0.155762:-2:-1.375:1.4375
1562064447777871:-1:-1:-1:-2:-4:-3:-1:0:-0.490234:-0.885254:0.161621:0.75:-0.375:1.125
1562064447825876:-1:-3:-1:11:1:2:-2:-1:-0.48877:-0.882324:0.155762:-1.1875:0.4375:0.5625
1562064447874881:-1:1:-3:0:23:1:-1:-1:-0.483887:-0.882324:0.152832:-1.875:0.5625:1.25
1562064447925886:1:-1:-5:-28:-5:4:0:-1:-0.498535:-0.884766:0.151855:-0.8125:0.625:1.125
1562064447981891:1:0:3:1:-6:-1:1:-1:-0.492676:-0.887207:0.141602:-1.4375:0.375:1
1562064448026896:-1:0:1:7:1:-1:-1:-1:-0.490723:-0.881836:0.148926:-1.3125:0.0625:0.6875
1562064448077901:-2:-3:-5:-3:1:0:0:-2:-0.494141:-0.877441:0.152832:-0.5:0.5:0.4375
1562064448124906:0:1:2:-2:-7:0:0:2:-0.488281:-0.882812:0.143555:-0.625:0.5:0.5
1562064448174911:-4:-1:0:-6:6:-8:-3:-1:-0.497559:-0.878906:0.14209:-0.75:0.8125:1.125
1562064448233917:-1:-1:1:2:-2:1:0:1:-0.496582:-0.878906:0.140137:-1.9375:0.375:0.6875
1562064448279921:-1:0:1:13:5:-2:-4:0:-0.496094:-0.878906:0.148926:0.6875:1.4375:0.875
1562064448324926:0:-2:1:-8:-12:-3:2:-1:-0.496094:-0.879883:0.14502:-1.25:1.4375:0.875
1562064448383932:-1:0:2:2:4:1:-1:0:-0.498535:-0.879395:0.140625:0.4375:0.625:0.5
1562064448427936:-1:1:-2:-5:-1:1:0:1:-0.5:-0.870605:0.150879:0.5625:0.25:0.625
1562064448483942:-1:-1:1:-1:3:-3:0:-2:-0.493164:-0.884766:0.139648:0:-0.375:0.25
1562064448526946:0:0:-2:0:6:-1:-1:1:-0.494629:-0.874512:0.146973:0.3125:-0.375:0.25
1562064448587952:-2:0:0:-3:-13:-4:-2:0:-0.498047:-0.88623:0.145996:-0.3125:-0.5625:-0.0625
1562064448627956:0:0:-4:1:7:0:0:-1:-0.497559:-0.876953:0.147461:0.875:-0.5:-0.0625
1562064448687962:0:0:-2:1:-8:0:0:1:-0.495605:-0.879883:0.144043:1.0625:0.1875:-0.25
1562064448736967:-1:-1:1:2:-1:-1:-2:-1:-0.500977:-0.879883:0.149902:0.5:-0.1875:-0.25
1562064448789972:0:-1:0:-1:-7:-3:-1:0:-0.493164:-0.881348:0.145508:0.5625:0.1875:0.0625
1562064448826976:-1:-2:0:4:-6:-1:1:-1:-0.498047:-0.879883:0.15332:0.3125:-0.0625:-0.3125
1562064448886982:-1:0:0:-2:-5:-3:1:-4:-0.495605:-0.875:0.149902:0.9375:0.375:0.0625
1562064448940987:0:0:-2:1:10:-2:-2:0:-0.495605:-0.881836:0.147949:0.1875:0.3125:0.0625
1562064448989992:-1:1:0:0:6:2:0:1:-0.502441:-0.875:0.148438:0.6875:0.3125:-0.0625
1562064449036997:-2:0:2:0:-1:-5:-2:-2:-0.501465:-0.881836:0.14502:-0.125:-0.3125:-0.5
1562064449089002:-2:0:0:1:-8:0:2:1:-0.49707:-0.881836:0.146973:0.125:-0.1875:-0.125
1562064449142007:-1:-1:1:0:1:1:0:-1:-0.495117:-0.879395:0.149414:-0.125:0.0625:-0.1875
1562064449188012:0:-1:0:-5:-7:-1:0:0:-0.494629:-0.879883:0.15332:-0.0625:-0.1875:0.125
1562064449240017:-1:0:2:-1:1:3:2:1:-0.499512:-0.878906:0.154297:0.125:0.1875:-0.0625
1562064449291022:0:-2:0:-1:-8:-1:-3:0:-0.49707:-0.878418:0.148926:0.125:0.0625:0.25
1562064449330026:-3:-1:0:-2:5:2:1:-2:-0.491699:-0.881348:0.144531:0.75:-0.0625:0
1562064449390032:0:-2:-1:4:-3:0:0:1:-0.498535:-0.874023:0.153809:0.4375:0.0625:-0.25
1562064449442037:-1:-1:-1:-5:-1:-3:-2:-2:-0.498047:-0.880859:0.154785:0.4375:-0.25:-0.1875
1562064449487042:0:-2:-2:-2:4:0:0:-1:-0.490723:-0.883301:0.15625:-0.0625:-0.25:0.125
1562064449540047:0:-2:-4:2:-1:1:-3:-1:-0.494629:-0.882812:0.152832:0.0625:0.0625:0.25
1562064449591052:1:-1:-2:1:-2:-3:-1:-2:-0.498535:-0.875:0.152344:0.125:0.125:0.375
1562064449629056:0:1:0:0:-1:-1:-1:0:-0.496094:-0.882812:0.155273:0:0.4375:0.125
1562064449690062:-1:-3:-1:-2:3:3:1:-2:-0.499512:-0.878906:0.151855:-0.375:0.1875:0
1562064449743067:-1:0:3:0:3:-2:-1:-1:-0.49707:-0.875:0.152344:0.375:0.25:0.4375
1562064449790072:-1:-1:-2:2:0:-3:0:-1:-0.495605:-0.875:0.152832:-0.5:0.125:0.0625
1562064449840077:-3:-1:-1:0:-5:-3:0:-1:-0.496094:-0.882812:0.157715:0.125:0.3125:-0.0625
1562064449891082:-1:0:0:0:0:-3:0:-1:-0.497559:-0.880859:0.152832:-0.5625:-0.3125:-0.1875
1562064449946088:0:1:-1:-7:-20:-1:-1:-2:-0.496094:-0.883301:0.15332:-0.4375:-0.125:0.125
1562064449990092:0:-2:1:-2:0:1:0:-2:-0.49707:-0.875:0.147949:-0.375:-0.25:-0.4375
1562064450043097:-2:-2:-2:3:-6:-4:-1:1:-0.495117:-0.883301:0.150879:-0.3125:-0.3125:-0.1875
1562064450091102:0:0:0:0:3:1:1:0:-0.494629:-0.876953:0.155762:-0.375:-0.375:-0.5625
1562064450140107:-1:0:-1:1:-8:-2:-1:-1:-0.500977:-0.878418:0.155762:-0.5625:-0.5625:-0.4375
1562064450192112:-1:0:-2:-3:-1:-3:-1:0:-0.493652:-0.882812:0.152832:-0.4375:-0.5625:-0.625
1562064450245118:-1:0:0:0:-6:-3:-1:-1:-0.500977:-0.882324:0.152832:-1:0:-0.6875
1562064450289122:0:0:-1:1:7:3:1:1:-0.5:-0.879883:0.149414:-0.8125:0.125:-0.375
1562064450333126:-1:1:1:0:1:-5:0:0:-0.494629:-0.880859:0.150879:-0.25:-0.125:-0.125
1562064450393132:0:-1:-1:0:-6:5:0:0:-0.48877:-0.881348:0.146484:-0.4375:-0.0625:-0.3125
1562064450448138:-1:-4:1:1:-3:-1:1:0:-0.500977:-0.879395:0.148926:-0.4375:-0.0625:-0.0625
1562064450492142:0:0:-1:1:-5:-3:-1:-1:-0.491211:-0.882812:0.151855:-0.0625:-0.0625:0
1562064450545148:-3:-1:-2:-3:-1:-3:-3:-1:-0.496094:-0.884277:0.149902:-0.8125:-0.0625:-0.125
1562064450590152:0:-2:-2:0:9:-3:0:1:-0.498047:-0.881348:0.156738:-0.0625:0.3125:0.1875
1562064450650158:2:-1:1:2:-9:-2:-2:-2:-0.494629:-0.881348:0.154297:-0.75:0.3125:0.0625
1562064450702163:-1:0:-1:-4:16:1:0:1:-0.498535:-0.881836:0.144531:-0.75:0.25:-0.1875
1562064450752168:-1:-1:1:0:-6:-3:-1:1:-0.49707:-0.884277:0.152832:-0.5:-0.125:-0.1875
1562064450792172:-1:-4:-3:-2:4:8:1:1:-0.495605:-0.879883:0.150391:-0.875:-0.5:-0.125
1562064450852178:7:2:1:-7:-44:-1:4:4:-0.498047:-0.88623:0.150879:-1.4375:-1.3125:0.0625
1562064450893182:-7:-6:10:56:10:1:0:4:-0.486816:-0.878418:0.138672:-2.875:-1.875:1.6875
1562064450942187:41:-1:-96:-47:10:18:2:4:-0.505371:-0.89502:0.147949:-6.8125:5.25:2.9375
1562064451002193:34:24:28:9:68:32:11:24:-0.462402:-0.783203:0.330566:3.875:-1.3125:19.4375
1562064451054199:-55:-38:58:113:73:22:-1:35:-0.436035:-0.959961:0.0625:12:-3.875:15.9375
1562064451108204:100:-18:22:32:15:10:2:-26:-0.509277:-0.768066:0.0717773:23.1875:-4.0625:-1.75
1562064451152208:36:-6:42:-73:-83:-7:13:41:-0.500977:-0.855957:0.210938:-1.5625:3.25:-16.375
1562064451206214:61:-15:-46:15:-10:-5:17:-39:-0.51709:-0.866699:0.0893555:1:-14.6875:-12.125
1562064451255219:-13:8:21:25:127:-13:3:-30:-0.461426:-0.932129:0.217285:-7.125:0.625:-9.9375
1562064451295223:57:-14:-13:-41:67:20:32:68:-0.479004:-0.85498:0.0634766:-2.1875:-14.125:-5.25
1562064451355229:28:-8:56:-36:63:16:6:25:-0.44873:-0.978516:0.197754:5:-5.375:-4.6875
1562064451408234:-54:-19:15:65:-8:25:-32:-98:-0.499023:-0.858398:0.115234:-2.4375:-1:-6.5625
1562064451452238:127:-39:-1:33:-43:-56:-5:-80:-0.467773:-0.844727:0.122559:10.5625:-4.4375:0.25
1562064451504244:127:23:-55:16:13:-22:23:-26:-0.469238:-0.930664:0.143555:-5.0625:-2.25:0.4375
1562064451556249:-61:-25:-35:127:112:41:-36:-44:-0.458984:-0.870117:0.17041:-7.3125:6:-0.4375
1562064451594253:1:4:11:-22:64:16:13:72:-0.495117:-0.931152:0.120117:-0.5:-1.3125:-0.25
1562064451655259:27:35:5:-24:-128:-45:26:-20:-0.455078:-0.947266:0.156738:-3:0.9375:-0.9375
1562064451707264:36:-3:59:127:127:37:-7:61:-0.459473:-0.898438:0.18457:-10.25:3.5625:-1.5625
1562064451745268:-46:-17:-20:58:71:36:-13:107:-0.499512:-0.890625:0.0786133:-1.9375:-3.625:-1.9375
1562064451804274:-29:-3:-10:-5:0:-52:-21:-21:-0.464844:-0.879395:0.197266:-7.9375:6.1875:-4.6875
1562064451855279:-17:-125:-1:-4:17:-12:-2:-11:-0.472168:-0.935547:0.0634766:-5.9375:-4:-2.1875
1562064451910284:-8:-29:-1:-113:12:-4:-6:-5:-0.458496:-0.919922:0.237305:31:-12:-12.5
1562064451954289:-4:-13:-1:72:20:0:-2:-3:-0.385254:-0.884766:0.256836:30.0625:3.25:-11.375
1562064452008294:-1:-11:-5:-46:-2:-5:1:-1:-0.44873:-0.945801:0.136719:10.875:13.4375:2.6875
1562064452055299:-1:1:0:2:16:5:3:0:-0.450684:-0.885254:0.174805:12.3125:14.125:6.625
1562064452113304:0:-1:-2:-28:4:0:-1:-1:-0.479492:-0.894043:0.157715:-9.1875:5.125:2
1562064452157309:-2:0:3:2:-12:-4:-1:-2:-0.474121:-0.911133:0.179199:0.25:6.6875:0.375
1562064452216315:0:3:2:11:8:0:0:-2:-0.466797:-0.893555:0.146973:-7.1875:3.625:0.6875
1562064452254319:1:0:2:26:2:6:1:0:-0.45752:-0.900879:0.165527:-0.75:3.375:3.0625
1562064452315325:-1:1:-1:1:2:-2:0:-2:-0.46582:-0.892578:0.162598:-1.375:3.5625:1.9375
1562064452370330:1:3:2:-7:0:4:1:1:-0.467773:-0.896973:0.143555:-3.9375:2.8125:0.0625
1562064452415335:0:-2:-1:-1:5:-1:-3:-2:-0.471191:-0.899414:0.149902:-0.4375:0.5:0.25
1562064452456339:1:1:1:3:-2:-3:-1:1:-0.463379:-0.900391:0.154785:-0.5:-0.625:0
1562064452517345:-2:-2:-2:-8:-6:-4:-1:0:-0.47168:-0.893066:0.153809:-0.5625:-0.8125:0.375
1562064452570350:1:-3:1:8:-8:-2:-3:-2:-0.466309:-0.890137:0.157227:-0.4375:-0.75:0.9375
1562064452614355:0:0:-1:-4:8:-2:-1:0:-0.467285:-0.893555:0.161133:-0.875:-0.0625:1.6875
1562064452670360:0:-1:-4:-3:-3:-4:0:0:-0.480469:-0.883789:0.149902:1.375:0.4375:1.0625
1562064452715365:-1:0:0:-2:-15:1:1:0:-0.475586:-0.883789:0.158203:0.125:0.4375:0.125
1562064452772370:-2:0:1:0:-5:1:0:-2:-0.464355:-0.890625:0.155273:-0.5:-0.125:-0.9375
1562064452816375:-1:0:0:-5:0:-1:-2:-2:-0.470703:-0.893066:0.160645:-1.25:-0.125:-0.9375
1562064452872380:-2:-1:-1:-4:-3:0:0:0:-0.473145:-0.893066:0.152832:-0.25:-0.375:-0.4375
1562064452914385:-1:-1:0:1:1:-1:2:-2:-0.461426:-0.893555:0.153809:-0.25:-0.3125:0.0625
1562064452959389:-1:0:-2:-6:1:-4:-3:-2:-0.468262:-0.899414:0.151855:-0.9375:-0.25:0.875
1562064453020395:-1:-5:-2:-2:22:7:-2:-2:-0.470215:-0.891602:0.148926:-0.375:-0.0625:1.0625
1562064453079401:0:0:-2:1:1:3:-2:1:-0.476074:-0.890625:0.147949:-0.25:-0.4375:0.9375
1562064453117405:1:0:2:-1:-2:-2:1:0:-0.476074:-0.892578:0.149414:-0.0625:-0.3125:1
1562064453177411:-1:1:-2:0:-2:-4:-2:-1:-0.470703:-0.888672:0.152832:0.3125:-0.25:0.6875
1562064453218415:-1:1:0:0:8:0:1:-1:-0.474121:-0.891113:0.154297:-1.4375:-0.6875:0.1875
1562064453274421:-1:-2:-2:-2:4:2:0:0:-0.474121:-0.892578:0.158691:-0.25:-0.5625:-0.125
1562064453320425:-2:-2:-1:-2:-1:0:-2:0:-0.470215:-0.895996:0.157715:-0.9375:-0.6875:0.0625
1562064453379431:1:1:2:8:5:1:1:1:-0.470703:-0.887207:0.151855:-0.5:-0.3125:-0.125
1562064453417435:1:0:1:-1:0:-2:0:0:-0.472656:-0.892578:0.151367:-0.5:-0.0625:0
1562064453477441:-1:2:3:-1:-2:-1:2:-1:-0.473633:-0.891113:0.154785:-0.25:0.4375:0.375
1562064453518445:0:0:0:-2:0:-2:-2:-1:-0.477051:-0.893066:0.149902:-0.375:0.125:0.625
1562064453577451:0:-4:-3:-1:4:0:1:-1:-0.464355:-0.888672:0.149414:-0.125:0.5625:0.3125
1562064453619455:-2:0:-2:-2:0:-2:-1:2:-0.478516:-0.88916:0.159668:-0.3125:0.0625:0
1562064453679461:0:-3:1:2:11:2:-4:2:-0.473145:-0.891113:0.152832:0.5625:0.0625:0.375
1562064453732466:-2:0:0:-1:-7:-2:0:2:-0.47168:-0.894043:0.154785:-0.25:0.1875:0.375
1562064453777471:0:0:0:-2:-8:-2:2:-1:-0.481934:-0.889648:0.156738:-0.25:0.1875:0.625
1562064453832476:0:1:-4:-3:-7:1:1:0:-0.476562:-0.889648:0.155273:0.375:0.125:0.625
1562064453882481:-1:-1:-1:-3:-1:-2:-5:0:-0.476562:-0.88916:0.160645:-0.1875:-0.0625:0.125
1562064453919485:-1:0:-1:1:-6:-2:-1:-2:-0.47998:-0.88623:0.155273:0.5625:-0.3125:-0.125
1562064453980491:0:-1:-2:-4:-6:0:0:0:-0.472168:-0.883789:0.157715:0.125:-0.25:-0.625
1562064454032496:0:1:-1:-3:-7:0:0:1:-0.475586:-0.895508:0.151367:0.1875:-0.5:-0.8125
1562064454080501:-1:0:0:-2:2:-2:1:0:-0.477539:-0.894043:0.158203:-0.25:-0.6875:-0.0625
1562064454122505:-1:0:-1:3:1:7:2:-1:-0.473145:-0.894043:0.154297:0:-0.5:0.125
1562064454182511:-1:-1:-1:1:-2:-3:-1:0:-0.475098:-0.885742:0.147949:0.125:-0.1875:0
1562064454234517:1:0:1:0:-5:2:0:0:-0.474609:-0.889648:0.155273:0.1875:-0.0625:-0.0625
1562064454280521:0:-2:-1:3:2:1:-1:-1:-0.480957:-0.88916:0.15918:0.375:-0.125:-0.0625
1562064454331526:-1:-1:2:-1:-5:-2:-1:1:-0.481934:-0.893066:0.155762:0.375:-0.1875:0.375
1562064454379531:-2:-2:0:-7:-22:0:1:0:-0.472656:-0.887207:0.158691:-0.625:-0.1875:0
1562064454437537:-1:-1:-1:0:3:-1:-1:1:-0.478516:-0.88916:0.161621:-0.5:-0.0625:-0.0625
1562064454481541:-1:-3:-1:1:9:-2:-3:-1:-0.475586:-0.890625:0.155762:0.5:0.375:-0.0625
1562064454534547:0:-2:-3:0:-5:3:0:-1:-0.471191:-0.894043:0.159668:-0.375:-0.0625:-0.0625
1562064454579551:0:-1:0:-2:-8:-2:-4:1:-0.486328:-0.884277:0.158203:-0.25:-0.0625:-0.125
1562064454632556:0:-1:-2:0:2:-1:-1:-1:-0.473633:-0.890625:0.15625:-0.8125:-0.4375:-0.125
1562064454680561:3:-1:-1:0:9:4:3:-2:-0.476074:-0.885742:0.161621:0.875:-0.3125:-0.1875
1562064454736567:6:1:0:-1:-8:0:-2:0:-0.478027:-0.89502:0.160645:-2.6875:-0.9375:0.125
1562064454781571:-1:0:1:3:-1:-6:0:-1:-0.482422:-0.884766:0.159668:1.875:-0.1875:1.0625
1562064454819575:-2:0:-1:0:0:0:0:-1:-0.473145:-0.898438:0.154297:-1.4375:-0.1875:1.3125
1562064454879581:0:-1:-1:-5:-4:4:1:0:-0.483887:-0.877441:0.161133:0.0625:0.4375:0.375
1562064454941587:1:-1:0:-2:3:4:-2:0:-0.480957:-0.886719:0.157715:-0.125:0.25:0.0625
1562064454985592:-2:2:0:-1:-8:-1:0:0:-0.477539:-0.892578:0.153809:0.1875:0.5:0
1562064455036597:-2:-2:-3:-3:-3:0:1:2:-0.48291:-0.884277:0.161133:-0.25:0:0.25
1562064455081601:-1:1:2:2:4:-1:-1:0:-0.478516:-0.884766:0.158203:0.1875:0.125:0.125
1562064455134607:-1:0:-1:0:-6:-2:1:-2:-0.482422:-0.889648:0.165039:-0.375:0.125:0.125
1562064455182611:1:0:-1:-2:-7:-3:-1:-2:-0.481934:-0.884277:0.15918:-0.125:0.1875:0.4375
1562064455243617:-1:0:-2:-7:-19:-3:0:1:-0.471191:-0.88916:0.155762:-0.4375:0.625:0.0625
1562064455284622:1:-1:-1:1:3:0:2:0:-0.48291:-0.883789:0.157227:-0.25:0.375:-0.25
1562064455336627:0:-3:-5:-3:3:-3:-4:-1:-0.484375:-0.883301:0.155762:-0.25:-0.125:-0.125
1562064455382631:0:3:1:-1:6:0:-1:0:-0.478027:-0.886719:0.162109:-0.1875:-0.5:-0.3125
1562064455442637:-1:0:0:0:3:2:0:0:-0.481445:-0.891113:0.163086:-0.375:-0.375:-0.6875
1562064455482641:-1:-2:2:0:4:-1:-3:-1:-0.480957:-0.887695:0.161621:-0.75:-0.1875:-0.5
1562064455542647:-1:-1:1:2:6:0:1:1:-0.480469:-0.886719:0.156738:0.375:0.3125:-0.6875
1562064455584652:-2:-4:1:4:6:-4:7:-1:-0.481934:-0.890625:0.160156:-0.75:-0.25:-0.5
1562064455644658:1:1:-1:-6:-19:-3:-1:-1:-0.47998:-0.888672:0.160156:-0.3125:-0.1875:0.25
1562064455682661:0:5:10:1:6:-3:-2:-1:-0.476074:-0.881348:0.166016:-0.6875:-0.1875:-0.625
1562064455741667:116:14:-5:40:78:27:16:37:-0.520508:-1.10205:-0.0268555:-43.5:-13.5:8
1562064455793672:-86:10:79:95:-6:-38:-6:3:-0.683105:-0.804688:0.149414:-27.75:-45.375:18.3125
1562064455847678:-95:-75:-34:-48:-5:-66:-77:-50:-0.562988:-0.635254:0.31543:4.1875:-5.1875:-12.1875
1562064455884682:-3:41:102:55:35:5:3:25:-0.438477:-0.906738:0.169922:31.3125:-4.9375:-2.1875
1562064455944688:10:-27:-44:-76:-44:-67:-23:-107:-0.504883:-0.799805:0.169434:-29.875:-5.875:-13.3125
1562064455997693:57:-16:20:-42:-34:-45:86:66:-0.47998:-0.759277:0.167969:2.25:-4.1875:-15.3125
1562064456045698:62:32:8:-128:-39:54:42:44:-0.472168:-0.981445:0.208984:-5.625:-3.1875:-10.875
1562064456088702:11:22:-32:-76:13:9:-43:-48:-0.461426:-0.921387:0.09375:-15.125:-17.6875:-15.5625
1562064456148708:-88:-62:-29:66:-75:-30:-40:-49:-0.413574:-0.90625:0.19873:-8.0625:-6.0625:-6
1562064456200713:-115:2:57:-41:27:44:36:90:-0.410645:-0.881348:0.220215:-0.1875:-0.5:-0.125
1562064456244718:-8:-32:-23:-53:18:-28:12:-37:-0.469727:-0.899414:0.140625:-4.1875:-1.625:2
1562064456296723:40:27:10:26:10:-7:-2:35:-0.425293:-0.929199:0.181152:-2.8125:8.625:-3.4375
1562064456344728:41:45:-44:-21:-45:0:-4:-85:-0.442383:-0.887207:0.200195:-5.5:6.3125:2.3125
1562064456388732:63:3:74:126:72:21:32:-42:-0.455078:-0.94043:0.114746:-0.1875:-4:-0.4375
1562064456447738:-54:30:-5:-25:37:-78:33:-64:-0.394531:-0.900879:0.193848:-4.6875:2.75:0
1562064456499743:-6:-15:-42:1:15:49:3:36:-0.473633:-0.849121:0.133789:-2.25:-0.125:-0.1875
1562064456544748:20:2:72:19:-3:23:0:4:-0.450684:-0.958496:0.102051:-10.875:-0.5625:4.5
1562064456604754:1:-128:3:-44:-13:1:-55:-1:-0.458008:-0.870605:0.0551758:-0.25:-10.8125:0.5625
1562064456657759:3:-33:-3:-55:11:-4:1:17:-0.356934:-0.928711:0.324707:41.8125:-0.8125:-17.4375
1562064456702763:7:-12:2:81:3:2:-12:3:-0.434082:-0.845215:0.19043:10.125:12.25:-4.0625
1562064456747768:0:0:3:-1:2:4:-2:0:-0.419434:-0.920898:0.20459:14.375:17.8125:8.9375
1562064456800773:1:-2:-2:-7:6:2:-2:3:-0.430176:-0.864258:0.20752:1.3125:15.125:10.3125
1562064456859779:1:2:0:13:4:9:1:2:-0.461914:-0.900879:0.177734:-6.3125:13.875:7.25
1562064456907784:-1:0:2:-33:-3:0:1:-1:-0.474121:-0.87207:0.152832:-5.5:8.375:2
1562064456950788:-1:-1:-3:-53:23:-1:-3:-1:-0.474121:-0.88623:0.189941:1.375:2.0625:2.8125
1562064457009794:0:-2:0:20:1:-3:-1:-2:-0.458984:-0.884277:0.180176:-6.0625:1:-0.4375
1562064457062799:0:1:0:1:21:-2:-2:-1:-0.470215:-0.899414:0.162598:-5.125:1.3125:0.5
1562064457106804:-1:-2:-4:-20:-4:1:0:-1:-0.466309:-0.887695:0.169434:-1.5:0.5:0.5
1562064457159809:0:0:0:-3:12:0:1:0:-0.46582:-0.89502:0.172852:-3.75:-0.625:-0.5625
1562064457207814:0:0:0:0:-10:-2:0:-1:-0.456055:-0.898438:0.168457:-1.4375:0.4375:0.1875
1562064457249818:-1:-1:-1:-19:-3:-2:-1:-1:-0.464355:-0.888672:0.167969:-0.1875:1.0625:0.5
1562064457309824:-2:0:-1:5:-9:-2:1:-2:-0.468262:-0.898438:0.164551:-1.5:1.125:0.5
1562064457361829:-2:1:0:10:3:1:1:1:-0.467773:-0.895996:0.173828:-0.125:0.4375:0.6875
1562064457406834:-2:-1:0:17:0:-5:1:1:-0.46875:-0.893555:0.165527:-0.4375:0.6875:0.625
1562064457460839:0:-2:-4:-5:-5:2:-2:-2:-0.476074:-0.890137:0.158691:-1.125:-0.3125:1.125
1562064457507844:0:-1:0:-4:0:3:3:-1:-0.469238:-0.88916:0.17334:0.4375:-0.625:0.875
1562064457550848:0:0:0:-1:4:0:0:0:-0.475586:-0.884766:0.169922:0.25:-0.5:-0.125
1562064457610854:0:0:0:-2:-7:-3:-3:1:-0.468262:-0.890625:0.162598:1:-0.1875:-1.4375
1562064457661859:-2:-2:-4:-2:-13:1:1:1:-0.469727:-0.891602:0.166992:0:-0.125:-1.6875
1562064457709864:0:0:3:0:-22:-7:-1:-1:-0.466797:-0.89502:0.166016:-0.4375:-0.375:-0.375
1562064457752868:0:0:-2:-1:1:2:-1:-1:-0.469238:-0.891602:0.166992:-0.5625:0.0625:1.25
1562064457812874:0:-1:-3:-2:-6:-1:1:0:-0.471191:-0.887695:0.166504:-0.375:0.5625:1.375
1562064457864880:-2:-1:-3:0:4:-1:-2:-2:-0.461426:-0.89209:0.160156:-0.125:0.75:0.625
1562064457910884:1:0:0:-2:-4:0:-1:0:-0.479004:-0.88623:0.161621:-0.3125:0:0.125
1562064457961889:0:0:1:-1:-3:-1:-1:-1:-0.477539:-0.894531:0.161133:-0.625:-0.9375:0.625
1562064458010894:-1:-1:-1:1:14:1:-1:0:-0.477539:-0.890137:0.166992:0.3125:-1.625:0.8125
1562064458067900:0:1:0:0:-1:-1:-1:1:-0.470215:-0.889648:0.169434:0.1875:-1.6875:0.5625
1562064458112904:1:2:-1:-1:2:1:0:-1:-0.473633:-0.887207:0.173828:-1.0625:-1.375:0.625
1562064458150908:-2:0:1:-3:-19:-4:0:0:-0.472656:-0.890137:0.172852:0.4375:-0.375:0.875
1562064458210914:0:-2:-1:2:6:-2:0:-1:-0.479004:-0.883789:0.169922:-1:-0.75:0
1562064458261919:0:1:-1:-1:0:-3:-1:-1:-0.476562:-0.883789:0.162598:-0.375:-0.75:-0.25
1562064458310924:0:0:0:0:1:-1:0:-2:-0.472656:-0.889648:0.169922:0:-1.3125:-1
1562064458367930:-1:-1:-4:-2:1:1:1:-1:-0.472168:-0.892578:0.168945:-0.375:-1.375:-1.4375
1562064458412934:0:-1:0:-1:-3:-2:-2:-1:-0.473145:-0.885742:0.168945:-0.8125:-1.6875:-0.9375
1562064458463939:-1:1:-1:-4:19:6:-1:0:-0.467285:-0.894531:0.174805:-0.1875:-1.3125:-0.5
1562064458509944:-2:-2:-1:0:-1:2:1:-1:-0.46582:-0.888672:0.173828:-0.375:-0.875:-0.4375
1562064458569950:1:0:0:-2:8:1:1:-1:-0.469727:-0.88623:0.170898:-0.125:-0.25:-0.6875
1562064458615955:0:-1:-1:0:-2:-1:0:-1:-0.466309:-0.893555:0.176758:-1:-0.5:-0.75
1562064458667960:-1:-2:-1:-1:-7:0:0:0:-0.471191:-0.892578:0.174805:-0.375:-0.3125:-0.4375
1562064458712964:0:1:-1:-1:-15:1:0:-2:-0.465332:-0.893066:0.168945:-0.4375:-0.8125:-0.375
1562064458764970:-1:-1:-1:-1:6:1:-3:0:-0.465332:-0.891113:0.17334:0.1875:-0.5625:-0.9375
1562064458812974:-1:0:0:-1:17:-3:1:0:-0.470703:-0.892578:0.174316:-1.75:-0.9375:-0.9375
1562064458870980:-1:1:-2:2:10:7:4:2:-0.469727:-0.890137:0.169434:0.0625:-0.5625:-0.75
1562064458914985:0:-1:-1:-3:-5:-1:2:-2:-0.460938:-0.89502:0.173828:-0.8125:-0.3125:-0.625
1562064458967990:-3:-1:0:1:-3:-4:-3:-2:-0.473145:-0.89209:0.174316:-0.375:0.0625:-0.375
1562064459015995:0:0:-2:0:3:-2:-1:0:-0.459961:-0.894043:0.166016:-0.375:0.3125:-0.3125
1562064459065000:0:0:0:0:4:0:0:0:-0.468262:-0.894531:0.169434:-0.625:0.1875:-0.375
1562064459125006:0:0:0:3:1:-2:-4:0:-0.466309:-0.895996:0.172363:-0.1875:0.3125:0.25
1562064459170010:-2:-3:-3:-1:-1:-1:-1:-1:-0.466797:-0.891113:0.174316:-0.0625:0.375:0.3125
1562064459218015:-2:0:-1:-1:1:0:-2:1:-0.464355:-0.892578:0.169434:-0.0625:0.6875:0.125
1562064459267020:0:-2:-1:0:-1:-3:-2:0:-0.466797:-0.891602:0.17334:-0.125:0.125:0
1562064459327026:0:-1:0:0:13:1:-2:1:-0.468262:-0.890625:0.166992:0.25:-0.25:0.0625
1562064459375031:-1:-1:0:-1:1:5:1:0:-0.463379:-0.892578:0.17334:0.4375:-0.375:0.375
1562064459424035:-2:-1:-1:1:-3:-3:-2:0:-0.468262:-0.892578:0.174316:-0.1875:-0.25:0.0625
1562064459469040:-1:0:-2:-1:-1:1:-5:-2:-0.46875:-0.893555:0.168457:0.0625:-0.0625:0.0625
1562064459518045:1:-1:-1:1:-11:-1:0:-1:-0.469238:-0.884766:0.174316:-0.125:0.125:0.125
1562064459578051:-1:0:-1:-3:-15:-4:-2:0:-0.462402:-0.894531:0.17627:0.375:0.125:0
1562064459627056:-2:-1:1:-1:3:-2:-2:-3:-0.475098:-0.887695:0.169922:-0.4375:0.3125:-0.125
1562064459678061:-1:-1:-1:2:0:-1:2:1:-0.472656:-0.89209:0.169434:0.3125:-0.125:-0.25
1562064459720065:1:2:2:0:-2:-2:0:-1:-0.464355:-0.891113:0.17334:-0.125:-0.4375:-0.375
1562064459780071:-2:-1:-1:-1:-2:1:-5:0:-0.466797:-0.88916:0.17041:-0.3125:-0.3125:-0.5625
1562064459830076:1:-1:-1:1:4:0:3:-1:-0.463379:-0.892578:0.173828:-0.25:-0.625:-0.125
1562064459878081:-1:0:-1:-4:-1:-3:-2:0:-0.463867:-0.891113:0.177246:0.125:-0.125:-0.5
1562064459928086:-2:0:0:-3:-11:-2:-2:0:-0.467773:-0.894043:0.17334:-0.0625:-0.0625:0
1562064459978091:0:0:-1:-3:-2:1:-4:-2:-0.467773:-0.893066:0.178711:0.125:0.1875:0.9375
1562064460034096:1:0:0:-1:-5:-2:0:-1:-0.463379:-0.888184:0.17334:-0.0625:0.625:0
1562064460080101:-1:-1:-1:1:2:-2:0:-3:-0.471191:-0.88623:0.174316:-0.0625:0.3125:-0.1875
1562064460130106:-2:0:1:0:-2:3:0:-1:-0.473633:-0.892578:0.172852:-0.5:0.125:-0.0625
1562064460177111:-2:-2:0:-2:6:2:1:2:-0.466797:-0.884277:0.176758:-0.0625:-0.25:0.5
1562064460228116:0:-1:-1:1:9:-2:-5:0:-0.469727:-0.890137:0.178711:-0.25:0:0.1875
1562064460287122:0:0:-1:-1:-3:-4:-1:-1:-0.468262:-0.891113:0.178711:0.5:-0.0625:-0.0625
1562064460338127:0:-2:-2:3:25:-4:-2:-2:-0.473145:-0.890137:0.177734:0.25:0.375:-0.1875
1562064460381131:-1:-1:-2:-1:-10:-2:1:-1:-0.474609:-0.88623:0.181152:-0.75:-0.1875:0
1562064460441137:9:2:-12:53:30:4:2:0:-0.467285:-0.906738:0.146973:-2.125:0.9375:-0.125
1562064460490142:-30:-11:-31:-62:19:9:5:20:-0.495117:-0.960938:0.18457:-5.375:-10.75:19.125
1562064460541147:118:36:62:36:20:-20:9:-16:-0.316406:-0.835449:0.305176:-8.4375:-32:8.375
1562064460580151:-53:-19:20:-60:-65:10:44:22:-0.569336:-0.70752:0.313477:-4:10:-15.75
1562064460640157:-63:16:-16:-38:-10:-6:-2:30:-0.441895:-0.961914:0.0849609:20.375:-6.8125:-19.5
1562064460693162:81:-26:-26:81:-59:-8:-14:2:-0.481934:-0.920898:0.204102:-15.875:-0.125:6.0625
1562064460741167:91:3:38:-18:-22:-8:25:9:-0.469238:-0.767578:0.208496:-9.75:-9.125:-4.3125
1562064460790172:-15:-9:-47:-77:-48:-42:-8:-36:-0.433594:-0.959473:0.210938:-8.5625:2.4375:-15.8125
1562064460841177:-64:-20:-10:-86:11:-20:55:75:-0.415527:-0.873535:0.181152:-15.5625:4.25:-4.5625
1562064460896183:45:-13:61:-17:42:3:-56:-53:-0.425293:-0.979492:0.134277:-4.9375:-3.125:-2.625
1562064460939187:107:-3:23:81:102:33:23:-84:-0.417969:-0.927246:0.179199:1.375:7.8125:-5.125
1562064460992192:21:35:106:127:115:56:64:23:-0.449707:-0.849121:0.166992:18.5:4.4375:-9.4375
1562064461040197:23:-21:-58:23:27:35:2:-40:-0.415527:-0.973633:0.131836:9.9375:-2.875:-3.5625
1562064461090202:68:-1:-53:1:-51:-42:3:-39:-0.386719:-0.912109:0.216309:0.9375:-1.375:-3.1875
1562064461150208:26:-5:32:57:-18:-55:-20:5:-0.424316:-0.930664:0.160156:3.75:2.25:-1.9375
1562064461200213:-1:-18:-22:-22:-42:-71:-19:-66:-0.404297:-0.865723:0.170898:3:4.4375:3.375
1562064461243217:-56:-15:-7:-43:-35:16:4:-95:-0.441895:-0.922852:0.189453:7.375:1.8125:-3.4375
1562064461303223:-29:12:50:75:-17:-42:-20:44:-0.419922:-0.934082:0.166016:10.125:-1.625:-2.1875
1562064461352228:38:-1:-37:-45:10:-46:-12:14:-0.434082:-0.915527:0.204102:-1.3125:-1.3125:0.9375
1562064461400233:73:24:45:46:10:-96:-23:-7:-0.437012:-0.910156:0.204102:-1.3125:-4.625:3.5625
1562064461442237:126:8:-78:-111:62:49:21:76:-0.408203:-0.942383:0.180664:-5.9375:-0.875:-0.25
1562064461502243:32:23:22:77:-6:47:4:32:-0.412109:-0.922363:0.224121:-2.0625:2.3125:1.625
1562064461543247:-61:-4:-35:-12:-9:-83:-18:-24:-0.425781:-0.928223:0.139648:4.375:-3.8125:1.375
1562064461603253:-20:-39:-50:-65:58:70:12:-4:-0.40918:-0.92041:0.239258:2.8125:-4.5625:4.4375
1562064461653258:-5:-127:10:3:25:9:4:6:-0.391602:-0.944824:0.204102:-8:-3.3125:0.625
1562064461703263:0:17:17:10:-23:-8:4:4:-0.459473:-0.928223:0.165039:4.4375:-12.1875:2.6875
1562064461750268:-1:-2:6:-1:-18:3:2:2:-0.399414:-0.885254:0.254883:23.4375:-5.9375:-0.5625
1562064461802273:0:0:3:4:-11:5:3:0:-0.422363:-0.861328:0.247559:9.375:6.3125:-4.5
1562064461843277:-1:1:1:2:9:1:1:1:-0.410645:-0.901367:0.232422:-2.0625:15.625:-7
1562064461902283:-1:3:0:-2:9:1:2:0:-0.430176:-0.907715:0.17627:-12.125:16.5:-1.125
1562064461952288:1:2:-1:-13:-5:-5:-1:-1:-0.438965:-0.926758:0.167969:-7.4375:12.9375:0.875
1562064462004293:1:0:0:6:-4:-8:-10:-3:-0.438965:-0.899902:0.169922:-3.125:2.5:-0.8125
1562064462042297:-1:1:-4:-3:5:3:4:-2:-0.430664:-0.918945:0.184082:-0.75:-0.75:-0.6875
1562064462102303:0:-1:-2:-2:-16:4:1:0:-0.42041:-0.905273:0.185059:-1.125:-1.0625:-1.625
1562064462155309:-1:-1:-1:-2:-4:-1:-2:0:-0.428223:-0.920898:0.175781:-1.4375:-1.4375:0.0625
1562064462203313:-2:-2:-1:-5:-2:2:-1:-2:-0.411133:-0.919922:0.19043:0.3125:-0.25:1.8125
1562064462252318:-2:1:-1:3:2:-3:-4:-1:-0.425293:-0.912598:0.186523:0.375:0.5:2.3125
1562064462305324:-2:0:-2:-4:3:3:-1:-2:-0.432129:-0.901855:0.182129:-1.6875:-0.0625:3.375
1562064462358329:1:0:-5:-7:-19:0:-3:2:-0.426758:-0.906738:0.1875:0:0.1875:2.875
1562064462402333:-1:-1:-1:-1:-2:-2:-3:-2:-0.432129:-0.895996:0.188965:-0.9375:0.1875:2.5625
1562064462455339:1:-1:0:-4:-7:-1:0:-2:-0.4375:-0.898926:0.185059:-0.5:1.75:2.125
1562064462505344:-1:-1:-1:-2:7:0:0:-1:-0.439941:-0.899414:0.18457:-0.6875:1.6875:2.125
1562064462561349:-1:1:1:1:11:-1:2:-2:-0.439941:-0.903809:0.182617:-0.9375:2.0625:2.1875
1562064462606354:-1:1:-1:9:-1:1:0:1:-0.447266:-0.902344:0.175781:-1.6875:1.4375:1.9375
1562064462658359:-2:0:1:-3:9:-1:1:0:-0.446777:-0.902832:0.180664:0.3125:1.875:0.875
1562064462702363:0:-2:0:-6:-4:1:-1:-1:-0.449707:-0.897461:0.179199:-0.875:1.75:1.25
1562064462762369:-1:-1:-1:2:-5:-2:-1:-2:-0.44873:-0.898438:0.175781:0.375:0.75:1.25
1562064462815375:0:0:2:9:4:0:1:-2:-0.44873:-0.899902:0.181152:-0.3125:0.3125:1.1875
1562064462866380:1:0:2:7:6:2:2:1:-0.450684:-0.895996:0.17627:0.5625:0.375:1
1562064462905384:-2:-1:-2:3:-16:-4:6:-2:-0.449219:-0.898438:0.177246:-0.3125:-0.3125:1.1875
1562064462965390:-1:-2:2:1:2:-1:-4:1:-0.450684:-0.895508:0.181641:0.75:-0.875:1.1875
1562064463005394:-1:-1:-7:-14:-6:1:-2:-2:-0.443848:-0.89209:0.177734:0.3125:-0.4375:0.8125
1562064463065400:0:-1:0:-2:-13:-2:-1:0:-0.454102:-0.892578:0.180664:0:-0.0625:-0.125
1562064463114404:0:0:-1:1:-5:-2:-1:0:-0.458008:-0.895508:0.18457:-0.8125:-0.1875:0.1875
1562064463167410:0:1:2:11:-3:-1:0:0:-0.449219:-0.898438:0.181152:0.0625:-0.1875:0.5
1562064463204413:-1:-2:-1:-4:0:-1:1:-1:-0.45166:-0.893066:0.179688:-0.125:-0.1875:0.3125
1562064463264419:-1:-1:0:2:0:-2:1:1:-0.45166:-0.896973:0.179199:-0.5:-0.5:-0.1875
1562064463305424:-1:-1:0:-1:-3:0:1:0:-0.45166:-0.890137:0.179199:1:-0.375:-0.3125
1562064463365430:0:-1:1:7:10:2:0:0:-0.450195:-0.89502:0.181641:-0.5:-0.75:-0.75
1562064463407434:-1:0:-6:-7:-18:7:2:-1:-0.452637:-0.895508:0.183594:0.75:-0.1875:-0.125
1562064463467440:0:-1:-2:-2:-7:-2:0:-1:-0.447754:-0.89502:0.186523:-0.1875:0.25:-0.0625
1562064463520445:0:-2:-3:0:-1:-4:-2:-1:-0.453125:-0.895508:0.187988:-0.25:0.25:-0.25
1562064463564449:-2:-1:-1:-2:14:2:-1:-2:-0.452637:-0.895996:0.182129:-0.375:-0.3125:-0.1875
1562064463618455:0:-2:-1:0:15:2:1:0:-0.452637:-0.893555:0.180664:-0.0625:-0.5625:0.125
1562064463668460:1:0:-2:-4:13:-3:-4:0:-0.448242:-0.893555:0.185059:-0.375:-0.375:-0.125
1562064463707464:0:-1:-1:1:-11:-1:1:-1:-0.450684:-0.888672:0.184082:-0.1875:-0.1875:-0.6875
1562064463767470:-2:-2:1:-1:-5:0:-2:-1:-0.452148:-0.893555:0.185547:0.5:-0.1875:-0.625
1562064463821475:-1:-1:0:-10:-5:0:-1:-1:-0.450195:-0.894043:0.186035:0:-0.5:-0.5
1562064463871480:0:0:0:8:0:0:0:1:-0.447266:-0.896484:0.185059:0.25:-0.4375:-0.0625
1562064463916485:-1:-1:1:-1:-17:-1:-2:-2:-0.450195:-0.892578:0.189453:-0.25:-0.1875:-0.375
1562064463968490:-1:-1:0:0:-5:1:1:-1:-0.456055:-0.891113:0.191895:-0.3125:-0.4375:-0.25
1562064464006494:-2:0:-2:-7:-5:0:-1:1:-0.450684:-0.898438:0.186035:0.5:-0.5625:-0.4375
1562064464067500:1:-3:-1:3:18:0:1:-1:-0.443848:-0.897461:0.185547:-0.1875:-0.375:-0.625
1562064464120505:-1:-3:-4:-7:-14:-1:-4:0:-0.45459:-0.894043:0.192383:-0.5625:-0.5:-0.5
1562064464168510:-1:0:-1:-4:1:-5:-1:0:-0.449219:-0.901855:0.187988:0.375:0.0625:-0.375
1562064464218515:-1:0:3:-2:-5:1:1:0:-0.448242:-0.893555:0.1875:-0.375:-0.25:-0.25
1562064464269520:-1:0:-1:2:-1:0:0:0:-0.448242:-0.897949:0.189453:0.3125:0.375:0.25
1562064464323525:0:0:0:-4:-6:1:6:0:-0.447266:-0.895996:0.186523:-0.4375:0.25:0
1562064464367530:0:1:0:4:-3:-1:-2:0:-0.452637:-0.895996:0.187988:-0.4375:0.3125:-0.125
1562064464420535:-1:-1:0:1:-15:4:-6:0:-0.451172:-0.891602:0.188477:-0.5:-0.0625:0.3125
1562064464470540:0:-2:0:2:1:-2:1:0:-0.45459:-0.897461:0.182129:0.25:0.0625:-0.125
1562064464510544:0:2:-1:-3:-12:0:0:1:-0.44873:-0.894531:0.191895:-0.3125:-0.3125:-0.125
1562064464569550:0:0:1:0:-3:0:0:-2:-0.448242:-0.894043:0.188965:0.1875:-0.5625:-0.5625
1562064464622555:1:0:0:1:-2:-2:1:0:-0.453125:-0.89502:0.189453:-0.5:-0.8125:-0.625
1562064464667560:-1:-2:0:-1:-1:-3:-3:0:-0.444824:-0.895508:0.190918:-0.0625:-0.875:-0.8125
1562064464720565:0:0:0:4:-7:-3:-1:0:-0.449707:-0.891113:0.197266:-0.125:-0.75:-0.5625
1562064464771570:-1:-1:1:9:7:1:-2:-1:-0.45459:-0.903809:0.192383:-0.375:-0.8125:-0.3125
1562064464825576:0:1:0:-2:-7:1:0:0:-0.44043:-0.898926:0.191895:-0.125:-0.1875:-0.5625
1562064464869580:0:0:-1:-4:6:-1:1:0:-0.453125:-0.898438:0.193848:-0.9375:0.0625:-0.8125
1562064464923585:0:0:-4:-4:-13:0:0:-1:-0.449219:-0.892578:0.185059:-0.25:0.375:0.1875
1562064464970590:0:0:1:1:4:0:-2:1:-0.445312:-0.895996:0.190918:-0.75:0.1875:0.125
1562064465030596:1:0:0:-1:-1:-1:1:-1:-0.449219:-0.898438:0.186035:-0.5:0.25:-0.0625
1562064465070600:-1:0:-6:-5:-8:-1:-1:-1:-0.444824:-0.896973:0.189941:-0.5:0.0625:-0.125
1562064465126606:0:-2:-1:2:17:-3:-4:0:-0.445312:-0.893066:0.190918:-0.1875:-0.25:-0.375
1562064465170610:-1:-2:1:1:-5:3:1:-1:-0.447754:-0.899414:0.192383:-0.3125:-0.1875:-0.25
1562064465229616:-1:-1:-3:-4:-1:-3:-2:0:-0.444824:-0.897949:0.193359:0:0:-0.0625
1562064465270620:-1:0:0:1:-8:2:-4:-1:-0.446777:-0.899414:0.186523:-0.6875:-0.1875:-0.4375
1562064465328626:0:-1:-1:-4:7:2:1:0:-0.449219:-0.897461:0.186035:-0.8125:0.3125:-0.1875
1562064465372630:-2:-2:-2:2:-2:2:3:0:-0.445312:-0.897949:0.185547:-0.625:0.875:0.375
1562064465431636:-1:-1:0:1:5:1:-1:1:-0.447754:-0.896973:0.190918:-1.125:1.375:0.75
1562064465469640:1:0:-1:-8:7:-9:-1:0:-0.452148:-0.896484:0.191895:-0.5625:1.8125:0.5625
1562064465529646:-2:0:1:1:3:8:3:-1:-0.45459:-0.896484:0.181641:-0.125:1:0.1875
1562064465573650:-2:-1:-3:-2:-7:0:-1:-1:-0.450684:-0.900391:0.184082:-0.3125:0.3125:0.3125
1562064465633656:0:0:3:-1:0:-4:-2:0:-0.447266:-0.895508:0.183105:0:0:0.25
1562064465672660:-1:1:0:1:-6:-3:0:0:-0.45459:-0.892578:0.187988:0.125:-0.1875:0.375
1562064465731666:-4:0:-2:-1:14:2:1:-1:-0.452148:-0.897949:0.182617:0.4375:-0.625:0.4375
1562064465786672:-3:-2:-1:1:-4:-4:-5:-2:-0.442871:-0.894531:0.187988:0.25:0.0625:0.1875
1562064465834676:0:-1:-3:2:-12:-1:1:1:-0.457031:-0.897461:0.184082:0.0625:-0.0625:-0.1875
1562064465869680:0:-1:0:-2:-9:-4:3:0:-0.45166:-0.894531:0.183105:-0.25:-0.375:0.1875
1562064465930686:-1:-1:-3:-5:0:-4:-2:-2:-0.447754:-0.897949:0.1875:0.1875:-0.25:0.0625
1562064465988692:-2:-1:3:1:-13:0:-2:0:-0.454102:-0.893555:0.19043:-0.25:-0.0625:0.0625
1562064466032696:-1:0:-1:-3:-1:-1:-3:-1:-0.451172:-0.895508:0.18457:-0.0625:0.0625:0
1562064466087702:-1:-1:0:6:16:0:-1:-2:-0.45459:-0.895508:0.182617:-0.25:0:-0.0625
1562064466132706:-1:0:0:-1:-8:1:1:-1:-0.45166:-0.893066:0.187988:-0.25:0.1875:-0.0625
1562064466174710:-1:0:1:1:16:1:-2:0:-0.455566:-0.895996:0.191406:0.125:0.125:0.0625
1562064466235717:1:-1:1:-1:12:6:1:-1:-0.451172:-0.891602:0.187012:-0.25:-0.1875:-0.6875
1562064466287722:-1:0:1:-3:-21:-2:-1:-1:-0.452637:-0.898438:0.192871:-0.3125:-0.375:-0.3125
1562064466331726:-1:0:-2:-1:0:1:-1:-1:-0.451172:-0.896973:0.186523:0.125:-0.3125:-0.25
1562064466392732:-1:0:-2:1:0:0:0:0:-0.450195:-0.894531:0.187988:-0.25:-0.25:-0.1875
1562064466432736:-1:0:-3:-6:-12:-4:4:-2:-0.452637:-0.895508:0.195312:0.1875:-0.125:-0.3125
1562064466492742:1:-1:-1:-2:-15:-1:1:1:-0.453613:-0.898438:0.186523:-0.0625:-0.1875:0.125
1562064466534746:0:-1:-1:-2:8:-2:-2:0:-0.452637:-0.896973:0.192383:-0.25:-0.25:-0.3125
1562064466587752:0:1:2:4:13:5:1:-1:-0.45459:-0.895508:0.196289:-0.0625:-0.25:-0.3125
1562064466632756:1:-1:-1:-3:0:2:-2:-1:-0.456055:-0.891602:0.193848:-0.4375:-0.25:-0.1875
1562064466692762:0:-2:0:2:-2:2:0:0:-0.448242:-0.892578:0.194336:-0.5:0.125:0.125
1562064466733766:-2:-2:-4:-4:8:0:-1:0:-0.45166:-0.897461:0.188965:-0.125:0.375:-0.5
1562064466792772:0:0:-2:-1:-1:0:0:-2:-0.456055:-0.891602:0.193848:-0.1875:-0.1875:-0.5
1562064466834776:-1:-3:-4:-11:-8:-2:-2:0:-0.449219:-0.893066:0.192383:-0.25:-0.3125:0
1562064466894782:-2:-2:-2:3:1:-1:0:0:-0.443359:-0.895508:0.19043:-0.125:-0.1875:-0.3125
1562064466946788:-1:0:2:4:-4:-5:-2:-4:-0.455078:-0.895996:0.189941:-0.5625:0:-0.1875
1562064466992792:-2:1:-2:-3:1:-2:-2:0:-0.449219:-0.895508:0.194336:-0.25:0.25:0.0625
1562064467037797:0:-1:0:3:5:0:-3:-2:-0.450195:-0.891113:0.190918:0.25:0.375:0.0625
1562064467096803:-1:-3:1:1:1:-1:0:2:-0.454102:-0.897461:0.191406:-0.25:0.3125:0.1875
1562064467149808:-1:-2:-1:0:-5:-2:2:-2:-0.450195:-0.890137:0.196289:-0.5625:0.0625:-0.0625
1562064467194812:-1:-1:0:-5:2:-2:-5:0:-0.449707:-0.89209:0.191895:-0.125:0.0625:-0.375
1562064467247818:-2:-2:0:-6:3:2:1:-1:-0.452637:-0.895508:0.195801:-0.5625:-0.3125:-0.125
1562064467295823:1:0:2:1:-18:0:-2:-1:-0.447266:-0.894531:0.189941:0.375:0:0.125
1562064467337827:1:-2:1:-2:2:0:0:-1:-0.446289:-0.89209:0.192383:-0.4375:0:-0.25
1562064467396833:-1:-2:-3:4:18:-4:1:-1:-0.45166:-0.894043:0.189941:-0.25:0.125:-0.25
1562064467449838:0:-2:-1:-3:-5:0:0:-1:-0.455078:-0.891602:0.188477:0.1875:0.125:0.125
1562064467495843:-1:0:-1:-4:14:-2:-1:1:-0.450684:-0.890625:0.194336:-0.25:-0.0625:-0.0625
1562064467550848:1:1:2:2:9:4:1:1:-0.452637:-0.894531:0.192383:-0.375:0:-0.0625
1562064467595853:-1:-1:0:1:6:1:-3:-1:-0.449707:-0.895996:0.188477:-0.125:0:0.125
1562064467652858:0:0:1:0:7:6:1:0:-0.453125:-0.895508:0.191406:-0.0625:0.0625:0.4375
1562064467696863:-2:-4:0:0:-18:-3:0:-2:-0.446289:-0.890625:0.191406:0:0.1875:0.3125
1562064467749868:-1:1:0:3:-2:2:0:0:-0.455566:-0.896484:0.194336:-0.4375:-0.125:-0.1875
1562064467794872:-1:-1:0:-2:7:-1:1:1:-0.451172:-0.894043:0.195801:0.0625:0:-0.125
1562064467854878:-1:-2:-2:1:2:2:0:2:-0.449219:-0.896973:0.192383:-0.375:-0.125:-0.5625
1562064467895883:-1:0:-3:-3:4:-3:-2:-1:-0.449707:-0.898926:0.189941:-0.1875:-0.125:-0.375
1562064467952888:-1:0:-4:-6:-14:-2:-1:-3:-0.449707:-0.894043:0.192383:-0.25:-0.0625:-0.0625
1562064467996893:-1:-2:0:0:6:-3:-1:-1:-0.451172:-0.893066:0.195801:-0.5:-0.3125:-0.8125
1562064468057899:-1:0:-5:-8:8:-1:2:-2:-0.447754:-0.894531:0.188477:-0.375:-0.1875:-0.5625
1562064468109904:1:-1:1:6:11:6:2:0:-0.447754:-0.896973:0.187012:-0.875:-0.125:0.125
1562064468162909:-1:-3:0:17:-13:-5:1:0:-0.451172:-0.896484:0.195312:-0.3125:0.4375:-0.1875
1562064468199913:0:-2:-1:-3:12:0:-2:-1:-0.454102:-0.890137:0.189453:-0.75:0.5625:-0.4375
1562064468259919:-1:1:0:-1:-6:1:-1:-2:-0.451172:-0.891113:0.191895:-0.25:0.125:-0.25
1562064468311924:-1:0:1:-1:6:-1:1:-1:-0.447266:-0.894043:0.194824:-0.1875:-0.3125:-0.4375
1562064468357929:0:-1:-1:-3:-12:-4:-1:0:-0.450195:-0.893555:0.193848:-0.6875:-0.25:-0.375
1562064468409934:-1:0:-2:-2:5:3:1:-1:-0.449219:-0.89209:0.189453:0:-0.0625:-0.1875
1562064468457939:93:8:-27:-28:9:0:-2:6:-0.459961:-0.919434:0.162598:-5.5:-0.0625:0.5
1562064468514944:1:-34:-14:81:0:-28:-13:-44:-0.413574:-0.930664:0.282715:-0.9375:-27:22.875
1562064468560949:13:-40:-41:122:-14:-51:-33:52:-0.713867:-0.840332:-0.0483398:-49.5625:-37.375:15.25
1562064468612954:-31:-4:-10:110:-2:-19:-17:36:-0.443848:-0.976562:0.199219:-6.3125:-18.8125:31.3125
1562064468657959:-51:-10:43:40:71:22:0:-105:-0.494141:-0.753906:0.299805:-4.4375:-9.1875:2.3125
1562064468709964:8:19:4:-128:-78:3:-9:-9:-0.51123:-0.885742:0.234375:-22.4375:-8.875:-5.5
1562064468758969:14:39:50:47:-22:-12:1:-6:-0.451172:-0.882812:0.265625:-14.8125:1:-7.5625
1562064468815975:-32:-27:-43:5:57:21:9:-51:-0.44873:-0.91748:0.208008:1.375:-5:-3.5625
1562064468862979:-24:-31:-38:2:-22:23:22:-3:-0.50293:-0.875977:0.225586:-11.5625:0.75:-2.8125
1562064468911984:21:-10:-49:-128:57:38:18:-20:-0.502441:-0.881348:0.220215:-1:-8.5:1.0625
1562064468965990:97:9:-45:-48:31:6:4:49:-0.467773:-0.890625:0.18457:-7.0625:-5.8125:6.9375
1562064469017995:78:26:-8:-119:-56:-32:-4:24:-0.487793:-0.833008:0.232422:-2.5:-6.6875:6.875
1562064469062999:29:-18:42:45:-27:-36:-6:5:-0.490723:-0.855469:0.215332:0.625:-1.5625:-3.8125
1562064469115004:-81:6:30:-117:-35:15:-12:41:-0.486816:-0.844727:0.228516:-1.3125:3.625:-5.3125
1562064469152008:0:-18:-44:-109:-3:10:6:-21:-0.470703:-0.908691:0.214844:1.6875:-1.0625:-4.0625
1562064469216015:12:2:-40:-25:65:36:23:104:-0.464355:-0.907715:0.213867:9.75:2.0625:-4.5
1562064469261019:18:12:8:1:18:-14:-3:-8:-0.467285:-0.878418:0.210449:-16.375:-3.125:-1.25
1562064469318025:-5:26:-2:-7:-3:3:1:-9:-0.479492:-0.866211:0.23584:-2.75:-0.125:-10.75
1562064469362029:5:1:2:-1:-6:1:3:0:-0.440918:-0.854492:0.237793:18.4375:3.125:-18.6875
1562064469418035:0:-3:-1:-12:-6:-1:1:-2:-0.443848:-0.89502:0.233887:-1:8.75:-15.1875
1562064469460039:0:0:0:-13:-15:-2:1:-2:-0.424805:-0.918945:0.225098:-4.25:18.5:-3.6875
1562064469520045:1:1:1:-8:-7:-6:-2:-1:-0.456543:-0.884766:0.19873:-4.8125:12.6875:-0.375
1562064469561049:-1:0:-3:-9:-1:-2:1:-1:-0.446289:-0.915527:0.195312:-1.1875:9.0625:2.5
1562064469621055:-1:0:-1:13:10:-1:2:-3:-0.454102:-0.893555:0.20166:3.6875:9:1.6875
1562064469663059:-1:-2:-1:5:-4:1:-5:-3:-0.464355:-0.888184:0.188965:-1.5:1.3125:1.375
1562064469723065:-3:0:2:-15:4:1:1:-1:-0.452148:-0.891602:0.199219:1.125:1.25:0.75
1562064469775070:-1:-1:-2:-6:-5:-2:-2:0:-0.456543:-0.88623:0.194336:0.1875:1.125:-0.4375
1562064469813074:0:0:0:-5:2:-3:-1:0:-0.456055:-0.893066:0.199707:0.4375:-0.375:0.375
1562064469872080:0:-1:0:-3:-2:0:0:-1:-0.451172:-0.89209:0.20752:-0.6875:0.125:-0.1875
1562064469918085:0:1:2:-1:-9:-6:-2:0:-0.455566:-0.889648:0.200684:0.5:-0.125:0.75
1562064469963089:-1:-1:-2:3:-7:-1:-1:-1:-0.454102:-0.892578:0.196289:0.625:0.625:0.75
1562064470022095:-3:0:-1:-4:-4:-3:-3:0:-0.456055:-0.887207:0.200684:0.1875:0.25:1
1562064470076101:-1:-1:0:1:12:-2:1:-1:-0.458008:-0.89209:0.194336:-0.1875:0.1875:0.25
1562064470123105:-1:1:1:4:-10:1:0:-2:-0.452637:-0.892578:0.206543:-0.75:-0.375:-0.375
1562064470165109:-3:0:1:-1:-15:0:-2:-1:-0.456055:-0.891602:0.196777:0.625:0.4375:-0.1875
1562064470225115:-1:-1:2:3:5:0:0:0:-0.453125:-0.888184:0.205566:-0.6875:0.25:0.3125
1562064470278121:0:0:0:1:3:0:1:0:-0.458496:-0.88916:0.201172:0.125:0.75:0.25
1562064470322125:0:0:0:-2:-6:-5:-2:0:-0.455566:-0.890137:0.203613:0.125:0.5:0.1875
1562064470363129:-1:2:1:1:6:0:-2:-2:-0.45752:-0.889648:0.199219:0.3125:0.1875:0.0625
1562064470423135:-2:-1:-1:-3:-4:-1:-1:-1:-0.457031:-0.887695:0.20459:0.1875:0.25:0.375
1562064470480141:-3:-1:-2:-2:-12:-2:-2:-2:-0.448242:-0.89209:0.200195:-0.25:0.1875:-0.25
1562064470525145:1:0:-2:1:-8:-2:-1:-1:-0.458496:-0.883789:0.206543:-0.125:0:-0.6875
1562064470578151:-1:-1:0:1:11:-1:-2:-2:-0.458984:-0.88623:0.203613:0.1875:0.1875:-0.375
1562064470630156:0:-2:0:-5:-3:0:3:0:-0.453125:-0.893066:0.200684:-0.5625:0.75:0
1562064470683161:-1:-1:0:9:-11:-2:-2:1:-0.454102:-0.88916:0.204102:0.4375:0.8125:0.0625
1562064470734166:-1:-1:-2:-1:9:-2:4:0:-0.453613:-0.894043:0.194824:-0.75:1.0625:0.3125
1562064470780171:-1:-2:-2:11:-13:-4:-2:-1:-0.459473:-0.882324:0.202637:1.0625:1:0.1875
1562064470826176:-3:-1:0:-3:5:1:-2:-1:-0.456543:-0.894043:0.201172:-0.4375:0.25:0.125
1562064470885181:0:0:1:-2:-25:-4:1:-1:-0.460938:-0.887207:0.205566:-0.25:0.6875:0.5625
1562064470938187:-1:2:2:-6:-23:-3:-2:-1:-0.458496:-0.885254:0.203613:-0.0625:0.5:0.3125
1562064470985191:0:-1:-1:0:-7:1:0:-1:-0.464844:-0.880859:0.205078:-0.25:0.25:-0.1875
1562064471028196:0:-1:-4:-2:-4:-1:-4:0:-0.45752:-0.889648:0.20166:-0.0625:0:-0.4375
1562064471088202:0:0:0:4:17:-1:2:0:-0.455078:-0.886719:0.200684:-0.4375:-0.0625:-0.5625
1562064471126206:-1:0:1:0:-4:0:3:-1:-0.463867:-0.886719:0.195801:-0.4375:-0.375:-0.3125
1562064471186212:-1:-1:-1:1:0:-3:-1:-1:-0.458008:-0.886719:0.200684:0:-0.25:-0.5625
1562064471237217:-1:-1:-2:-1:1:9:-1:-1:-0.458496:-0.884277:0.20459:-0.25:-0.375:-0.25
1562064471285221:0:0:0:-2:7:-2:3:-2:-0.465332:-0.888184:0.209473:-0.5625:-0.125:0.1875
1562064471329226:0:0:-1:1:-2:-1:-3:-1:-0.459473:-0.89209:0.203125:-0.5625:-0.125:0.25
1562064471388232:-1:-1:-2:-1:-5:-1:-3:-1:-0.455078:-0.890137:0.203125:-0.4375:0.1875:-0.5625
1562064471441237:0:-2:0:1:-12:-5:-6:-1:-0.463867:-0.883301:0.19873:-1:0.0625:-0.4375
1562064471486242:-1:0:1:1:8:-6:-5:0:-0.45752:-0.885254:0.203125:0.0625:0.125:-0.125
1562064471538247:-1:0:1:2:2:-1:-3:0:-0.45459:-0.890137:0.193848:-1.1875:-0.25:-0.5625
1562064471585251:-1:-1:-1:2:-1:0:2:-1:-0.461914:-0.883789:0.198242:0:-0.3125:-0.875
1562064471643257:-1:-1:-1:-2:8:2:0:-2:-0.456543:-0.891602:0.20166:-0.875:-0.625:-0.625
1562064471689262:-1:-1:0:-1:-6:3:1:-1:-0.460938:-0.887695:0.199707:0.1875:-0.5625:-0.3125
1562064471740267:0:-2:-2:-1:0:-2:-1:-1:-0.454102:-0.88916:0.205566:-0.3125:-0.5:0.5
1562064471785271:0:-2:-1:-2:0:-5:7:-2:-0.456055:-0.892578:0.203613:0.1875:0.25:1.3125
1562064471845277:-1:1:-2:-1:11:-4:-3:-1:-0.458984:-0.883301:0.20166:-0.125:0.4375:0.75
1562064471890282:-1:0:1:2:-7:2:-2:1:-0.466309:-0.885254:0.198242:0.125:0.5:0.375
1562064471942287:0:-1:3:1:2:1:0:1:-0.464844:-0.882812:0.200195:0.0625:0.4375:0.1875
1562064471988292:1:1:-1:2:0:4:2:-1:-0.464355:-0.891602:0.204102:0.0625:0.125:-0.25
1562064472040297:1:-2:-2:2:1:1:7:0:-0.460938:-0.891602:0.198242:0.3125:0.375:-0.25
1562064472088302:-3:-2:0:2:-7:0:0:-1:-0.461426:-0.891602:0.197266:-0.1875:0.125:0.1875
1562064472146308:0:-2:0:-2:-9:3:1:0:-0.456543:-0.888184:0.197754:0.5625:0.5:0.3125
1562064472191312:-1:0:-4:-7:14:3:-1:-2:-0.461426:-0.886719:0.197754:0.0625:0.4375:0.375
1562064472243317:-1:0:-1:1:17:-1:-2:-1:-0.463379:-0.889648:0.199219:0.3125:0.1875:0.4375
1562064472287322:-1:-1:0:-7:-28:-6:-5:-1:-0.458008:-0.891113:0.20459:0.1875:0.6875:0.25
1562064472340327:-1:1:2:4:-1:-2:1:-2:-0.467773:-0.888672:0.200195:-0.5:0.4375:0.375
1562064472388332:-1:-2:-1:1:5:-3:-3:-1:-0.459473:-0.887207:0.200195:1.125:0.4375:0.125
1562064472448338:-2:-1:0:0:-7:0:-1:0:-0.460938:-0.88623:0.199219:0.125:0.125:-0.125
1562064472491342:0:-1:-2:-3:-7:-3:-5:-2:-0.467285:-0.884766:0.202637:0.375:0.0625:0.0625
1562064472542347:-1:1:2:1:12:2:0:1:-0.457031:-0.885742:0.201172:-0.125:-0.125:0.125
1562064472589352:-1:-1:0:-1:2:0:3:-1:-0.464844:-0.884766:0.210938:0.5:0.25:-0.375
1562064472648358:0:-1:-1:0:-2:0:0:-1:-0.465332:-0.890625:0.205566:-0.375:0.25:-0.375
1562064472699363:-1:-1:0:2:9:4:3:1:-0.464355:-0.883789:0.195801:0.5:0.375:0.3125
1562064472745367:-1:2:1:3:-1:-1:-2:-1:-0.460449:-0.884277:0.202148:0.0625:0.1875:-0.25
1562064472793372:1:0:0:-4:-2:-3:-4:-2:-0.46875:-0.883301:0.202637:0.4375:0.25:-0.3125
1562064472842377:-1:-2:-2:-1:-1:-3:-1:-1:-0.458984:-0.889648:0.200684:0.375:-0.0625:-0.125
1562064472894382:0:0:0:0:-9:-1:0:1:-0.461426:-0.885742:0.196777:0.625:0.0625:0.0625
1562064472948388:-2:0:1:-4:-16:-7:-2:-1:-0.461914:-0.888184:0.200684:-0.1875:0.3125:0
1562064472995392:0:-3:-2:1:9:4:0:-1:-0.461914:-0.883789:0.202637:0.875:0.4375:0.0625
1562064473045397:0:-1:1:4:14:0:-1:-2:-0.460938:-0.887207:0.202637:0.25:0.3125:-0.125
1562064473093402:-1:-1:-1:-2:-18:-2:-1:0:-0.467285:-0.886719:0.206543:0.5:0.25:-0.0625
1562064473142407:-1:-1:-4:2:-16:-2:-2:-1:-0.462402:-0.891113:0.207031:0.25:0:0.1875
1562064473202413:-1:0:2:-1:-3:-3:0:-2:-0.453613:-0.885254:0.199707:0.3125:0.375:0
1562064473253418:2:-1:-1:3:9:1:-6:0:-0.462891:-0.886719:0.205566:0.3125:0.4375:-0.3125
1562064473296423:-1:1:-2:-3:-16:1:1:-1:-0.462891:-0.886719:0.206055:0.25:0.4375:-0.3125
1562064473344427:0:0:-2:-5:-5:-2:-1:0:-0.458984:-0.882812:0.200684:-0.0625:0.375:-0.1875
1562064473405433:-1:-1:1:2:11:1:0:-1:-0.457031:-0.888672:0.20166:0.3125:0.25:-0.1875
1562064473452438:-14:-1:-4:-6:-13:-1:-1:1:-0.460449:-0.887695:0.198242:-0.1875:-0.0625:-0.375
1562064473502443:-9:8:-4:5:32:7:5:1:-0.474121:-0.936035:0.153809:-8.875:-0.6875:1
1562064473557449:-33:18:27:60:-3:2:2:2:-0.64209:-0.722656:0.0976562:13.0625:-21.875:6.5625
1562064473608454:-53:7:26:122:-15:-19:-18:-106:-0.30127:-0.967773:0.39209:50.375:-18.25:18.875
1562064473656459:127:10:12:37:22:4:-7:-15:-0.438477:-0.85791:0.296875:-8.25:13.8125:15.25
1562064473705463:64:38:26:-36:-7:-1:18:3:-0.493652:-0.878906:0.270996:-20.0625:16.0625:6.75
1562064473753468:-108:-3:47:100:30:9:10:16:-0.533203:-0.822266:0.158691:-33.375:9.1875:-9.6875
1562064473798473:-7:-8:-11:-50:-28:8:7:2:-0.499023:-0.981445:0.126953:-2.3125:-6.1875:-3.1875
1562064473858479:47:-2:9:-88:-53:-11:-4:1:-0.439453:-0.881348:0.248047:-11.5625:-7.0625:-2.6875
1562064473907484:-55:-25:-27:70:-70:-32:-10:-33:-0.474609:-0.899902:0.197754:-6.1875:-8.1875:-7.75
1562064473955488:126:24:38:-42:31:14:-1:-36:-0.455566:-0.868652:0.212891:0.625:4.25:-5.4375
1562064474004493:103:9:5:-25:-18:-17:-1:-3:-0.46875:-0.925293:0.190918:-2.3125:4.125:-0.0625
1562064474055498:53:19:-22:84:27:-7:-10:-59:-0.475098:-0.871582:0.175781:-5.1875:2:2.5
1562064474111504:-117:-11:31:-70:43:-18:7:-22:-0.486816:-0.857422:0.202637:5.6875:-2.1875:2.125
1562064474158509:-40:27:39:-31:24:34:15:-31:-0.469238:-0.870605:0.175781:3.375:-7.125:-0.25
1562064474207514:46:-5:-35:82:-65:-15:-13:16:-0.442383:-0.905762:0.249512:-1.9375:-2.0625:2.5625
1562064474255518:-15:10:2:-22:-8:-12:-6:-11:-0.492188:-0.905273:0.171387:-4.0625:-3.625:4.25
1562064474315524:-16:-8:-7:5:-4:-11:-5:-1:-0.519043:-0.891602:0.241211:10.6875:-3.4375:-3.6875
1562064474364529:-1:-4:-5:2:7:4:-2:-1:-0.421875:-0.845703:0.260742:22.9375:7.0625:-9.125
1562064474416535:-4:-3:-5:2:5:-5:-2:-2:-0.486328:-0.873047:0.18457:4.125:8.8125:-8.5
1562064474458539:0:-1:-2:-2:4:1:-4:-2:-0.468262:-0.875977:0.231445:1.8125:11.1875:-6.875
1562064474516545:1:-1:-2:-3:-19:0:0:0:-0.466797:-0.889648:0.230957:-2.0625:9.625:-6.4375
1562064474556549:0:0:0:8:-5:-1:-4:0:-0.480957:-0.893066:0.174805:-6.0625:-0.5:-3.1875
1562064474615554:0:-1:-2:-12:-2:0:-3:-1:-0.455566:-0.883789:0.217285:8.0625:-5.5625:0.75
1562064474664559:1:1:-2:-1:7:2:1:1:-0.450684:-0.870605:0.237793:1.5625:-4.9375:0.4375
1562064474718565:-1:-1:1:-1:-7:0:1:-2:-0.449707:-0.890625:0.222168:0.3125:1.3125:0
1562064474758569:-1:0:0:0:10:1:-3:0:-0.458984:-0.881348:0.219238:1.5:2:0.875
1562064474818575:-2:-2:-1:17:1:-6:-1:-1:-0.460449:-0.877441:0.217773:-0.25:0.75:0.25
1562064474867580:-1:-1:1:1:-22:-3:-5:-1:-0.464844:-0.884766:0.212891:-1.0625:0.25:-0.0625
1562064474918585:-1:0:-1:-2:-15:2:2:0:-0.464355:-0.880371:0.20459:-0.625:-1.0625:0.1875
1562064474957589:-1:-2:-2:-1:-1:0:-4:-1:-0.460938:-0.884277:0.21582:-0.6875:-1.5625:0.3125
1562064475017595:-1:-2:0:-2:-5:-1:-1:-1:-0.456543:-0.889648:0.225586:0.625:-0.875:2.0625
1562064475058599:0:-2:1:-1:-5:-3:0:0:-0.458984:-0.876953:0.223145:0.5:0.1875:1.875
1562064475117605:0:-2:2:2:-3:-1:-2:-1:-0.455566:-0.883301:0.211914:0.0625:1.0625:1.125
1562064475167610:-1:-1:0:-1:-6:-3:-3:-1:-0.464355:-0.882812:0.211426:0.6875:1.4375:0.625
1562064475218615:1:0:-2:-1:-16:2:-1:-2:-0.469238:-0.882812:0.210449:-0.0625:0.375:-0.4375
1562064475257619:0:0:-2:-3:6:-2:-3:-2:-0.461426:-0.878418:0.217773:0.5:0.0625:-0.75
1562064475318625:-1:-1:0:0:5:0:-1:1:-0.458008:-0.885742:0.214355:0.3125:0.3125:-1.3125
1562064475370630:-1:-1:0:4:10:0:0:-3:-0.466797:-0.885254:0.210938:0.125:0.75:-0.6875
1562064475418635:0:0:-1:3:4:1:-2:-3:-0.461914:-0.883789:0.209961:0.75:1.5:-0.5625
1562064475468640:-2:-1:-2:3:4:-4:-2:-2:-0.460938:-0.887695:0.211426:0.3125:1.125:-0.6875
1562064475520645:0:-2:1:-5:-3:-2:0:1:-0.466309:-0.883789:0.21875:-0.3125:0.875:-0.375
1562064475557649:1:-2:1:-1:-10:1:4:0:-0.457031:-0.886719:0.215332:0.3125:0.625:-0.1875
1562064475616655:-1:-1:0:-3:-1:0:0:0:-0.462402:-0.883789:0.216797:-0.375:0.875:0.25
1562064475661659:1:0:-1:-2:-3:0:-2:-2:-0.46582:-0.883789:0.218262:0.4375:0.75:0.5
1562064475720665:-2:1:-1:8:-2:-4:1:0:-0.464844:-0.877441:0.216797:0.0625:1.125:-0.0625
1562064475759669:-1:0:0:1:-2:5:4:-2:-0.463379:-0.88916:0.213379:0.3125:0.8125:-0.1875
1562064475819675:-2:-1:-2:-1:-7:-3:-1:0:-0.465332:-0.882324:0.214355:0.375:0.5625:0.5625
1562064475858679:-1:1:0:-1:-3:0:-2:0:-0.46582:-0.881836:0.211914:0.5:0.3125:0.6875
1562064475917685:-1:0:2:0:11:-4:1:0:-0.464844:-0.882812:0.219238:1.1875:0.3125:0.0625
1562064475970690:-1:0:0:-2:-1:-1:-1:0:-0.462402:-0.881348:0.215332:-0.4375:-0.3125:-0.3125
1562064476021695:0:0:1:-2:-8:-2:2:-1:-0.458496:-0.887207:0.213867:0.9375:0:0.1875
1562064476076701:-1:-1:-1:-2:4:-3:-1:-1:-0.460938:-0.885254:0.213867:0.6875:0.4375:-0.125
1562064476119705:0:-1:1:3:-3:-4:3:0:-0.467773:-0.883789:0.218262:0:0.125:-0.0625
1562064476172710:0:-1:-1:-3:-9:-3:4:0:-0.460449:-0.879883:0.21582:0.3125:0.125:0.5
1562064476220715:1:0:0:2:-1:1:-1:2:-0.460449:-0.884766:0.22168:0.3125:0.1875:0.375
1562064476269720:-2:-2:-4:-1:2:1:-1:-1:-0.467773:-0.881836:0.218262:0.3125:0.25:0.125
1562064476321725:0:-1:-3:-4:19:0:-3:1:-0.46582:-0.878418:0.212891:0.125:0.375:-0.0625
1562064476381731:1:1:0:0:-3:-3:0:0:-0.474121:-0.878906:0.211426:0.3125:-0.125:0
1562064476419735:-1:1:0:-2:-5:-3:3:1:-0.472656:-0.880859:0.219238:0.375:-0.375:-0.125
1562064476479741:-1:0:-1:-2:2:0:0:-2:-0.43457:-0.890625:0.225098:0.0625:0.5:-1.1875
1562064476521745:0:-1:1:2:1:0:5:-1:-0.438477:-0.89209:0.233887:2.75:3.9375:-0.625
1562064476580751:-1:0:0:-2:0:2:0:-1:-0.483887:-0.878906:0.202148:1.625:6.75:-0.8125
1562064476621755:-2:0:1:-2:6:2:0:0:-0.475586:-0.880371:0.206055:1.6875:5.375:-1.375
1562064476683761:0:0:0:4:3:-2:-3:-1:-0.457031:-0.884277:0.211914:1.25:2.375:-3.1875
1562064476719765:-1:1:-2:-3:1:-2:-1:-1:-0.460449:-0.907715:0.213867:2.625:0.875:-2.3125
1562064476780771:0:-1:-1:-8:-21:6:2:1:-0.461914:-0.876465:0.231445:4.5:0.9375:0.875
1562064476832776:1:-1:-1:0:0:-2:0:0:-0.471191:-0.884277:0.22998:2.375:1.625:2.6875
1562064476883781:-1:-2:0:-5:7:-4:-2:-1:-0.460938:-0.876465:0.231934:1.25:2.125:2.75
1562064476922785:-2:0:-2:0:-3:0:-2:0:-0.463379:-0.875977:0.222168:-1.125:1.9375:2.5
1562064476982791:-2:0:0:3:0:1:5:-1:-0.475586:-0.884277:0.218262:0.125:2.125:2.625
1562064477019795:0:0:0:-2:-5:0:-2:-2:-0.484863:-0.871094:0.220703:0.9375:1.8125:2.1875
1562064477079801:-1:-3:-1:-3:-9:-3:-4:-1:-0.476562:-0.875488:0.229492:0.4375:1.5625:1.625
1562064477132806:0:-1:1:0:-1:0:0:-1:-0.477539:-0.864258:0.220703:-2.25:0.75:0.9375
1562064477183811:0:-1:0:1:9:-1:-1:-1:-0.476562:-0.870605:0.211426:-1.0625:0.8125:-0.1875
1562064477222815:-2:-1:0:-1:7:5:0:0:-0.459473:-0.876465:0.210938:-2.3125:0.6875:-0.8125
1562064477282821:-1:0:-3:0:-12:-3:1:0:-0.45752:-0.894043:0.203125:-1:-1.25:-1.1875
1562064477335826:0:-1:-3:-3:9:-3:-3:-1:-0.475586:-0.875977:0.211914:-0.375:-1.6875:1.5
1562064477382831:0:-1:0:-1:-5:-3:1:-1:-0.464355:-0.892578:0.21875:-0.5:-0.625:2.9375
1562064477432836:0:0:2:0:-4:-4:-1:-1:-0.466797:-0.874512:0.230957:3:1.75:3.1875
1562064477484841:0:0:-2:-1:1:-1:-3:1:-0.496582:-0.870117:0.231445:0.4375:5:2
1562064477538847:-1:-1:-2:-2:13:0:3:-2:-0.487305:-0.86377:0.208984:0.25:5.4375:-1.25
1562064477583851:0:-1:1:-1:-5:-2:0:-2:-0.489746:-0.867676:0.205566:0:3.75:-4.0625
1562064477642857:-1:-1:-3:3:-2:1:1:0:-0.481445:-0.868652:0.197754:-0.25:-2.125:-8.125
1562064477685861:0:0:0:-1:3:-4:-1:-1:-0.462891:-0.884277:0.199707:0.125:-4.6875:-8.5
1562064477741867:-1:-1:0:1:-4:1:1:-2:-0.449707:-0.887695:0.206543:1.5625:-5.5:-8.25
1562064477785871:-2:0:-1:0:12:-1:-1:1:-0.437988:-0.894531:0.211914:2.9375:-4.9375:-4.3125
1562064477822875:-1:0:-1:-2:-8:-2:1:-1:-0.439941:-0.898438:0.225098:1.9375:-3.6875:-1.875
1562064477882881:0:0:0:-1:-13:-1:1:0:-0.458008:-0.888184:0.239746:2.3125:-1.5625:0.9375
1562064477942887:1:0:-1:3:2:-4:0:0:-0.462402:-0.87793:0.240723:-0.8125:-0.625:2.4375
1562064477986892:0:-1:-2:-2:-9:2:1:1:-0.464355:-0.880859:0.236328:-1.875:-0.1875:2.375
1562064478041897:0:-1:-1:0:10:1:-3:0:-0.469238:-0.882812:0.234375:-2.625:-0.5625:1.4375
1562064478085901:-1:-1:-1:-1:12:6:2:0:-0.467285:-0.873535:0.226074:-2.25:-0.5:1.125
1562064478137907:0:0:-1:-2:-2:-2:-7:-1:-0.453125:-0.884766:0.225098:-2.3125:0.1875:-0.3125
1562064478185911:-2:-2:-1:0:-4:-2:0:0:-0.449707:-0.885254:0.22168:-1.875:0.6875:-1.0625
1562064478245917:0:-1:-2:-2:1:0:-1:-1:-0.445801:-0.88916:0.206055:-0.875:1.25:-1.0625
1562064478295922:-2:0:2:1:-16:-7:0:-3:-0.449707:-0.892578:0.214844:-0.1875:1.125:-0.125
1562064478340927:-2:1:-3:3:17:1:-4:-2:-0.450195:-0.88916:0.21582:-0.3125:0.875:1.25
1562064478385931:-2:-1:-1:-2:0:2:-1:0:-0.452148:-0.885254:0.213379:0:1.25:1.625
1562064478445937:0:-1:-2:-2:2:-4:-6:-1:-0.463379:-0.881836:0.213867:0.375:0.5625:0.3125
1562064478498943:-1:0:-1:-3:-4:-1:-3:0:-0.46875:-0.882812:0.212891:-0.8125:-0.5:-0.375
1562064478543947:-1:1:-1:-1:-16:-3:-1:0:-0.464355:-0.884766:0.219727:0.5625:-1.25:-1.125
1562064478587952:-1:-1:-1:-2:-10:-1:-2:-1:-0.462402:-0.889648:0.219727:-0.3125:-1.5:-1.0625
1562064478647958:0:0:0:-4:-1:1:3:0:-0.455566:-0.887207:0.225098:-0.8125:-0.6875:-1.125
1562064478684961:-2:-2:-1:2:-5:-3:0:-1:-0.45459:-0.883301:0.219238:-0.75:0.5:-0.875
1562064478744967:1:-2:-1:0:7:-1:-2:1:-0.449219:-0.888672:0.216797:-1.375:1.625:-0.8125
1562064478798973:-1:1:-3:-5:-17:-2:0:-3:-0.453613:-0.89209:0.210938:-1.1875:1.625:-0.125
1562064478848978:-3:0:-1:2:8:-5:-4:0:-0.440918:-0.895996:0.209961:-0.5:1.5:-0.0625
1562064478887982:0:0:0:2:29:1:-1:-1:-0.452637:-0.890625:0.203613:-0.875:1.5:0.625
1562064478947988:-1:-2:-1:1:5:3:2:-2:-0.455566:-0.889648:0.211426:-0.6875:0.875:1.4375
1562064479000993:-3:0:-1:2:11:-1:0:-2:-0.45166:-0.885742:0.208984:-0.125:0.875:1.375
1562064479047998:0:1:-2:1:3:-7:4:0:-0.456543:-0.88623:0.208496:-0.4375:1.125:0.8125
1562064479097003:-1:-2:-1:0:4:0:0:1:-0.458008:-0.887207:0.20752:-0.875:0.9375:0.8125
1562064479148008:-1:0:0:1:6:0:-1:0:-0.467773:-0.884277:0.211426:-0.1875:0.625:0.25
1562064479188012:-1:-1:0:-1:5:-2:-3:0:-0.466309:-0.891113:0.216309:0.5:0.625:0
1562064479247018:1:2:-2:-5:-10:2:1:0:-0.460449:-0.885742:0.206055:-0.0625:1:-0.125
1562064479301023:-1:-1:-2:0:5:-2:0:-2:-0.45752:-0.886719:0.209961:-0.5:1.1875:-1.0625
1562064479349028:-2:-3:-1:-2:-4:-5:-10:-1:-0.453125:-0.89209:0.20752:-0.5625:1.0625:-0.875
1562064479398033:0:1:0:0:-1:1:0:0:-0.458008:-0.895996:0.203125:-0.125:0.875:-0.1875
1562064479450038:0:0:0:1:4:-2:-4:-2:-0.455078:-0.887695:0.205566:-0.25:1.0625:1.125
1562064479503043:-1:-1:-1:0:-5:-4:-3:-3:-0.45752:-0.891602:0.20459:-0.75:1.25:-0.0625
1562064479548048:-1:-1:0:3:12:-1:-8:-1:-0.467773:-0.887207:0.20752:-0.375:0.6875:-0.3125
1562064479609054:0:-1:-2:-1:-7:0:0:-3:-0.44873:-0.893066:0.198242:-0.3125:-0.0625:-0.25
1562064479648058:1:0:-1:-1:0:-1:2:2:-0.455566:-0.888184:0.196777:0.125:0.3125:0.125
1562064479708064:-1:-1:1:7:6:-2:2:-1:-0.467285:-0.88916:0.20752:0.0625:-0.5:-0.6875
1562064479750068:0:-2:0:-2:3:3:1:0:-0.458496:-0.887695:0.198242:0.0625:-0.625:-1.3125
1562064479802073:1:-1:2:0:7:1:0:-1:-0.454102:-0.891602:0.203613:-1:-0.375:-0.875
1562064479848078:-1:1:-1:2:10:4:2:-1:-0.458984:-0.883301:0.197754:-0.25:-0.0625:-0.25
1562064479907084:-2:-2:-1:15:-8:-6:-2:-2:-0.45459:-0.888184:0.209961:-0.1875:0.25:-0.625
1562064479949088:-1:-1:1:7:0:0:-1:-2:-0.450684:-0.891602:0.205078:-0.4375:0.6875:-0.875
1562064480008094:60:12:-4:-104:-39:0:-1:0:-0.461914:-0.934082:0.168945:-11.625:-0.4375:0.875
1562064480050098:-34:-5:40:120:25:6:14:99:-0.472168:-0.796387:0.244629:23.3125:-12.25:16.5625
1562064480110104:37:32:-32:-60:-80:-10:-6:66:-0.413086:-0.863281:0.167969:-33.3125:-44.8125:5.6875
1562064480151108:-110:7:-12:-33:3:-38:-18:-54:-0.404297:-0.797363:0.181152:0.5:-1.5:-3.1875
1562064480211114:64:14:3:-26:127:36:27:14:-0.478027:-0.958496:0.157715:-3.1875:-11.9375:-2.6875
1562064480253118:-39:7:4:12:-57:13:22:-12:-0.449219:-0.92334:0.246094:-16.125:-8.9375:-2.75
1562064480312124:111:8:-68:62:13:15:12:33:-0.425781:-0.870605:0.234375:-3.375:-6:-0.5
1562064480350128:-30:-1:-61:17:1:-11:-17:-43:-0.422363:-0.927246:0.215332:3.125:-1.875:-5.5625
1562064480411134:58:31:40:-60:-36:21:8:28:-0.459473:-0.921387:0.203613:-6.5:-2.9375:0.9375
1562064480450138:63:-1:3:-87:117:26:12:-28:-0.461426:-0.918945:0.185059:-2.625:-3.875:-1.5625
1562064480511144:9:-1:52:55:4:-7:8:-5:-0.458008:-0.899902:0.220215:3.375:-2.5625:-0.3125
1562064480552148:2:16:32:49:68:3:0:68:-0.427246:-0.883301:0.21582:2.875:1.0625:3.6875
1562064480613154:40:19:5:-12:73:-2:6:78:-0.448242:-0.893066:0.189453:-0.25:0.0625:-0.4375
1562064480650158:-41:7:4:68:-54:12:7:-41:-0.426758:-0.904297:0.236816:-1.4375:3.375:-3.8125
1562064480710164:-8:2:1:-41:3:8:3:-16:-0.431641:-0.875488:0.215332:-14.875:5.9375:-5.4375
1562064480751168:-10:-2:-2:-23:-11:-5:-11:-13:-0.467285:-0.898926:0.130371:13:-7.0625:-20.8125
1562064480811174:-4:0:-1:-5:-27:8:8:-2:-0.402832:-0.921387:0.269043:26.25:0.3125:-20.125
1562064480853178:-2:-1:-2:-8:-25:-3:-4:-4:-0.378906:-0.92627:0.226562:-4.0625:9.5:-10.625
1562064480913184:-2:0:-1:-7:-11:-6:-9:-3:-0.405762:-0.966797:0.216309:4.375:15.25:-1.3125
1562064480965189:-1:-4:-1:-5:1:1:-2:-1:-0.428223:-0.908691:0.185547:-7.0625:7.8125:6.75
1562064481010194:-1:-3:3:8:7:-2:-2:1:-0.397949:-0.908691:0.208008:3.6875:7.6875:7.25
1562064481065199:-1:1:-1:-1:9:-2:-1:-1:-0.410645:-0.894043:0.19873:2.625:7.6875:4.3125
1562064481112204:-2:0:-2:1:5:-2:-3:-2:-0.416016:-0.910645:0.179688:-0.3125:6.8125:1.5625
1562064481152208:-1:-1:-1:0:-14:2:-1:1:-0.418945:-0.908691:0.186523:5.3125:6.75:1.375
1562064481213214:0:-1:-1:-3:-5:-1:-6:-1:-0.432617:-0.914062:0.192871:4.1875:6.3125:0.75
1562064481265219:-1:-1:0:1:8:-2:3:1:-0.481445:-0.909668:0.211914:4.6875:6:0.3125
1562064481310224:0:0:-2:-4:-5:6:1:0:-0.456055:-0.864746:0.192871:0.8125:-3.5625:-2
1562064481355228:-2:-1:-1:-1:-6:0:-7:-2:-0.437988:-0.918945:0.211426:-1:-4.125:0.25
1562064481415234:-2:-1:0:-1:-11:-1:0:0:-0.440918:-0.891113:0.208496:3.625:-4:-0.125
1562064481467240:-1:0:-2:1:13:4:-2:1:-0.418457:-0.896973:0.210449:-2.3125:-4.5:-1
1562064481513244:-2:0:0:5:8:1:0:-1:-0.429688:-0.900391:0.209961:-1:-3.5:-0.5625
1562064481566249:0:1:0:-6:-1:0:2:0:-0.409668:-0.907715:0.203125:-0.1875:-2.875:0.5
1562064481613254:0:-1:-1:-1:-4:0:1:1:-0.403809:-0.905762:0.206055:0.3125:-1:1.125
1562064481671260:0:0:0:1:23:-7:-1:0:-0.416504:-0.909668:0.20166:1:0.3125:2.3125
1562064481715264:0:-2:0:0:-4:-1:-3:-1:-0.44043:-0.897461:0.211914:1.3125:0.4375:3.625
1562064481767270:0:-2:0:-2:-8:0:1:1:-0.437988:-0.903809:0.21582:1.5625:1.125:3.75
1562064481812274:-2:0:-2:-1:-2:-5:-4:0:-0.447754:-0.888184:0.21875:1.625:0.8125:2.5
1562064481873280:-1:-2:-1:-1:-15:-6:-2:-1:-0.448242:-0.891113:0.212891:-0.4375:0.0625:1.3125
1562064481913284:1:-1:-2:-1:-6:-4:-1:-1:-0.453125:-0.888184:0.213867:-0.25:-0.875:0
1562064481973290:-1:2:0:0:6:5:3:0:-0.430176:-0.899902:0.213379:-0.25:-0.8125:-0.625
1562064482015294:0:-1:0:0:-8:-4:-3:-1:-0.433594:-0.899902:0.216309:0.0625:-0.4375:-0.75
1562064482075300:-1:0:0:2:-3:0:-2:-2:-0.42627:-0.897949:0.210938:0.125:-0.0625:-0.375
1562064482113304:-2:-1:0:1:-10:5:3:-1:-0.428223:-0.901855:0.207031:0.8125:0.375:0.8125
1562064482173310:-1:-1:0:2:-2:-5:-4:-2:-0.432617:-0.896973:0.209961:0.5:0.5:1.1875
1562064482225315:-1:-1:-2:-1:0:-4:-2:0:-0.433105:-0.898438:0.213379:1.1875:0.6875:1.625
1562064482278321:0:0:-1:2:5:-2:2:-2:-0.4375:-0.898926:0.21582:0.25:0.3125:1.375
1562064482316324:0:0:0:1:12:-3:-5:0:-0.441895:-0.891602:0.216797:0.8125:-0.125:1.125
1562064482376330:0:1:1:3:-2:-3:-5:-1:-0.441895:-0.896484:0.214355:0.5:-0.5625:0.5625
1562064482427336:0:0:-2:0:10:0:6:1:-0.442383:-0.890137:0.220703:0.3125:-0.1875:0.3125
1562064482475340:1:-1:0:0:0:-2:-1:-1:-0.443848:-0.893555:0.222168:0.3125:0:-0.25
1562064482519345:-1:-1:-1:-2:-6:-6:3:-1:-0.441895:-0.893066:0.21875:0.0625:0.125:-0.5
1562064482578351:1:-2:0:1:-1:1:2:0:-0.438477:-0.893555:0.221191:0.625:0.1875:-0.5625
1562064482630356:-1:0:-2:2:16:0:1:-2:-0.435059:-0.895508:0.216797:0.25:-0.125:-0.6875
1562064482676360:-2:1:-2:-3:-12:4:-3:1:-0.433105:-0.899414:0.215332:0.5:-0.1875:-0.1875
1562064482728366:0:-1:0:1:-1:1:0:0:-0.435059:-0.894531:0.218262:0.5625:-0.0625:0
1562064482776370:-1:0:0:0:-5:0:1:-3:-0.438477:-0.896484:0.214844:0.3125:-0.3125:0.25
1562064482817375:-2:0:-1:0:3:-2:-1:-1:-0.431641:-0.891602:0.219727:1.3125:0.0625:0.125
1562064482878381:-1:0:0:-3:-10:-1:-2:1:-0.44043:-0.885742:0.22168:-0.0625:-0.1875:-0.375
1562064482930386:0:0:-2:0:-13:-1:3:0:-0.445312:-0.897461:0.227051:1.0625:-0.25:-0.0625
1562064482975390:-2:-1:0:-4:-5:-4:0:-1:-0.435059:-0.893066:0.226074:-0.125:-0.375:-0.125
1562064483035396:0:-1:-2:0:-2:-1:-2:0:-0.437012:-0.89209:0.223633:0.625:0.125:-0.375
1562064483081401:-1:-2:0:3:7:0:1:0:-0.441895:-0.89209:0.219727:-0.625:0.125:-0.0625
1562064483132406:-1:-1:-1:0:1:3:-5:-1:-0.435547:-0.894531:0.22168:0.6875:0.375:-0.0625
1562064483178411:-1:-1:-1:1:-8:6:-2:0:-0.436523:-0.895508:0.222656:-0.5:0.125:0.0625
1562064483230416:-1:-1:-3:-2:8:-3:-1:0:-0.442383:-0.894043:0.218262:0.5:0.4375:0.5
1562064483278421:0:-2:1:-3:11:2:-2:1:-0.43457:-0.89502:0.220703:0:0.4375:0.1875
1562064483338427:0:-2:0:0:12:0:-1:1:-0.436035:-0.894531:0.21875:0.25:0.625:0.0625
1562064483381431:1:1:-1:3:13:1:1:-2:-0.438965:-0.893555:0.218262:0.125:0.1875:0.6875
1562064483433436:-1:0:-1:2:11:-3:0:1:-0.4375:-0.892578:0.223145:0.1875:0.25:0.625
1562064483478441:-1:1:1:-2:-1:-1:1:2:-0.441406:-0.891113:0.22168:0.1875:0:-0.1875
1562064483537447:0:-1:0:-3:-3:4:1:-1:-0.440918:-0.885254:0.221191:0.125:-0.375:-0.625
1562064483578451:-1:-1:0:-4:15:1:-4:-1:-0.440918:-0.898438:0.219238:0.25:-0.625:-0.4375
1562064483637457:-1:-1:-3:-2:-23:-5:0:-1:-0.438965:-0.891602:0.223633:-0.1875:-0.5:-0.0625
1562064483680461:0:-2:-1:4:5:3:-1:-1:-0.439941:-0.890625:0.219727:0:0.3125:-0.3125
1562064483740467:-3:-2:1:-4:-4:-2:-3:0:-0.437012:-0.894531:0.223633:-0.5:0.625:-0.1875
1562064483792472:1:0:1:0:-3:0:0:-1:-0.442871:-0.891602:0.225098:0.25:0.6875:0
1562064483838477:0:-1:-1:0:4:5:0:-1:-0.443359:-0.894043:0.220703:0.125:0.25:0.3125
1562064483890482:0:1:-1:1:-27:3:-4:-2:-0.428711:-0.893066:0.220215:0.3125:0.5:0
1562064483938487:-1:-2:-1:0:-1:-1:1:-1:-0.442383:-0.89502:0.220215:-0.1875:0.4375:-0.125
1562064483995492:-1:-1:-1:5:10:3:5:-1:-0.437988:-0.891602:0.222656:0.4375:0.625:0.4375
1562064484041497:-1:-1:0:-1:9:-1:-2:0:-0.433105:-0.897949:0.216797:0.1875:0.375:0.125
1562064484092502:-4:-2:0:-4:-10:-3:-1:-1:-0.444336:-0.890625:0.220215:0.4375:0.1875:-0.1875
1562064484138507:0:-2:0:-3:-2:-3:-1:1:-0.442383:-0.895508:0.217285:0.3125:0:0.0625
1562064484198513:-1:-1:-3:-3:1:-1:-1:-2:-0.436035:-0.887207:0.218262:0.5625:0:-0.1875
1562064484243517:-1:-1:2:4:12:2:1:1:-0.437012:-0.896484:0.221191:0.3125:0.5625:0.4375
1562064484295522:0:0:0:-2:-1:0:1:-1:-0.441406:-0.889648:0.220703:0.375:0.8125:0.75
1562064484340527:0:-3:-1:1:19:3:1:-1:-0.439941:-0.894531:0.219727:0.4375:0.9375:0.0625
1562064484393532:-1:0:-1:1:10:-1:1:-1:-0.438965:-0.891602:0.22168:0.0625:0.625:-0.125
1562064484441537:0:1:-1:-2:10:1:-12:-1:-0.437988:-0.89209:0.21875:0.3125:-0.125:0.3125
1562064484500543:-1:-1:1:0:21:-2:-1:-2:-0.439941:-0.887695:0.218262:0.5:0.125:0.0625
1562064484543547:-1:0:0:-3:-2:1:1:-1:-0.438477:-0.89502:0.221191:0.3125:0.25:0.1875
1562064484595552:-1:-1:-1:0:7:-1:0:-1:-0.441895:-0.89209:0.21582:0.375:0.375:0.3125
1562064484640557:0:0:-1:-8:-4:0:-1:0:-0.441406:-0.895508:0.221191:0.25:-0.0625:0.625
1562064484700563:0:0:1:8:20:-3:-1:-2:-0.439941:-0.890137:0.225098:0.4375:-0.3125:0.0625
1562064484752568:-2:-1:-1:-8:-5:-1:0:1:-0.439453:-0.893066:0.222168:-1.25:-0.375:-0.1875
1562064484801573:1:-1:1:-17:-5:-4:1:0:-0.442871:-0.885254:0.223633:0.6875:0.0625:-0.0625
1562064484843577:-31:-23:-9:-2:-15:-3:-4:-2:-0.437012:-0.910645:0.209473:-2.9375:-0.25:-0.125
1562064484903583:-8:-16:-3:88:-39:-19:-17:-14:-0.449707:-0.922363:0.223633:-5.25:-1.4375:5.5
1562064484955588:-49:6:-1:-128:34:1:0:-39:-0.527832:-0.809082:0.173828:8:-22.25:15.375
1562064485000593:42:24:33:53:4:-7:-8:-24:-0.397949:-0.941895:0.270996:51.375:-14.6875:13.375
1562064485053598:-19:-5:-46:106:29:11:-6:-16:-0.434082:-0.810059:0.271973:-7.3125:2.5625:8.875
1562064485106603:-79:-4:-19:-55:26:-10:-12:-20:-0.496094:-0.848633:0.244629:0.125:-0.25:-5.375
1562064485158609:127:6:-72:-65:84:-22:-10:37:-0.462402:-0.861816:0.258789:-13.5625:1.9375:-11.8125
1562064485203613:36:2:-9:43:-8:12:9:50:-0.483398:-0.874512:0.224121:-6.5:-4.5:-5.3125
1562064485255618:127:3:46:-23:-48:10:-7:19:-0.416016:-0.915039:0.254883:-5.4375:-2:-3.1875
1562064485303623:120:-14:-13:127:3:-35:-11:75:-0.463379:-0.851074:0.267578:-7.1875:0.0625:-1.1875
1562064485346627:-31:-14:38:83:64:1:3:-1:-0.451172:-0.926758:0.213867:-2.625:-2.5625:-1.25
1562064485405633:-113:-35:-97:9:40:8:3:37:-0.420898:-0.929199:0.239258:-2.8125:1.4375:-0.375
1562064485457639:36:2:18:25:67:32:20:37:-0.469238:-0.868164:0.211426:1.25:-4.5:-0.6875
1562064485504643:99:60:18:-96:-74:-20:-3:-16:-0.435547:-0.916992:0.222168:-4.625:-4.3125:-1.75
1562064485562649:-89:-45:-9:-65:55:9:-13:-29:-0.449219:-0.881836:0.247559:-4.8125:-1.875:-0.5
1562064485602653:-70:-3:-29:33:-32:-26:-18:-6:-0.455566:-0.894043:0.219238:-2.125:-2.875:-0.75
1562064485661659:-5:2:5:9:-22:-4:1:15:-0.427246:-0.86084:0.219238:-9.125:-2.5625:-2.625
1562064485705663:-8:-5:-3:3:-12:-11:-7:-8:-0.419922:-0.883301:0.282227:25.8125:1.0625:-15.875
1562064485757669:-3:-4:-3:-1:-4:1:1:6:-0.373047:-0.869629:0.280273:22.4375:10.375:-20.3125
1562064485803673:-4:-2:-2:4:-5:-4:0:-3:-0.425293:-0.939941:0.209961:-15:16.25:-7.6875
1562064485855678:-1:0:-3:-25:-9:0:2:1:-0.414551:-0.957031:0.20752:-4.6875:13.25:5.1875
1562064485908684:0:0:0:5:-16:-3:-2:0:-0.434082:-0.884277:0.235352:4.25:6.5:9.3125
1562064485960689:0:0:-1:44:-2:-2:-1:0:-0.445801:-0.870605:0.236816:-2.75:3.6875:8.0625
1562064486005693:1:-1:0:-23:-13:-2:-1:-1:-0.452637:-0.891113:0.217285:3.25:4.5625:2.5625
1562064486043697:0:-1:-3:-15:-8:-3:0:0:-0.443848:-0.878418:0.220215:3.625:2.3125:0.1875
1562064486117705:-2:-1:-3:-12:-10:-1:-1:-1:-0.435547:-0.89209:0.223145:-1.0625:1.6875:-0.9375
1562064486167710:-1:-2:-1:-11:-12:-2:-1:1:-0.450684:-0.895508:0.219727:-0.375:2.4375:-0.6875
1562064486224715:1:-1:3:2:-4:0:1:1:-0.447266:-0.894043:0.21582:0.25:-0.1875:1.25
1562064486268720:0:1:0:23:0:1:2:-1:-0.445312:-0.887695:0.219238:0.3125:-0.5625:0.875
1562064486319725:-1:-1:-2:-5:10:5:1:0:-0.447754:-0.88916:0.224609:0.1875:-0.0625:0.1875
1562064486368730:-1:-2:-1:-9:0:-2:-1:-2:-0.446777:-0.890137:0.221191:-0.375:-0.125:-0.25
1562064486418735:-1:0:0:10:3:3:7:-1:-0.444336:-0.891113:0.218262:-0.125:-0.5:-0.375
1562064486463739:-1:-1:-4:-1:-25:-6:-4:0:-0.442383:-0.891602:0.22168:-1.875:-0.75:-0.375
1562064486513744:-2:-1:1:9:0:1:9:-1:-0.445312:-0.885742:0.225098:-0.125:-0.9375:0
1562064486570750:0:1:2:44:4:4:-2:-1:-0.448242:-0.895996:0.220703:-0.5:-0.4375:-0.4375
1562064486619755:-2:-1:-1:-8:2:-5:-1:-2:-0.441895:-0.887695:0.225586:0.625:0.1875:-0.625
1562064486668760:-1:0:0:-11:11:-1:1:-1:-0.444824:-0.89209:0.227051:-0.6875:0:-0.4375
1562064486717765:-1:0:-2:2:-15:-4:-2:-1:-0.442871:-0.896484:0.220703:-0.0625:0.75:-0.1875
1562064486772770:1:-1:0:-2:-1:2:-2:0:-0.444824:-0.893066:0.217285:-0.8125:0.375:0.125
1562064486823775:-1:0:0:2:14:3:-2:0:-0.438965:-0.890137:0.221191:0:0.875:-0.1875
1562064486870780:0:-1:2:-3:1:-3:-5:0:-0.45166:-0.890625:0.216309:-0.625:0.1875:-0.0625
1562064486919785:-1:0:-1:7:14:0:0:-1:-0.445312:-0.89209:0.220215:-0.0625:0.1875:0
1562064486968790:-1:-1:0:0:8:4:-1:-2:-0.440918:-0.894531:0.223633:-0.25:0.125:-0.25
1562064487017795:0:-1:0:0:0:0:1:0:-0.449707:-0.890137:0.22168:-0.8125:0.375:0.5
1562064487072800:-2:-1:1:0:0:-1:-1:0:-0.445801:-0.891113:0.21875:0.25:0.6875:0.1875
1562064487122805:-1:0:-1:1:10:-1:-3:-2:-0.451172:-0.89209:0.225098:-0.125:0.4375:-0.0625
1562064487170810:-1:0:0:-2:-7:-2:-3:0:-0.447754:-0.887207:0.222656:0.3125:0.5:0
1562064487219815:-1:1:1:2:4:3:5:2:-0.447754:-0.888184:0.221191:-0.3125:0:-0.125
1562064487271820:0:-2:0:0:4:-2:-4:0:-0.446777:-0.891113:0.219238:-0.1875:0:-0.4375
1562064487326825:1:-1:-3:-1:-1:-1:0:0:-0.44873:-0.886719:0.216797:0.25:-0.25:-0.4375
1562064487373830:-2:-1:-1:-4:-11:-4:-3:-3:-0.445312:-0.890625:0.224609:0.5:-0.0625:-0.1875
1562064487422835:-2:-1:-3:1:-3:0:-1:-2:-0.444336:-0.889648:0.225586:-0.25:-0.25:0.0625
1562064487470840:-2:-1:0:0:3:-5:-1:1:-0.447754:-0.885742:0.224121:0.5625:0.1875:0.125
1562064487519845:-1:1:0:-5:-20:-3:2:0:-0.45166:-0.88916:0.225098:-0.1875:-0.25:0.25
1562064487580851:-1:-3:-1:-1:-24:0:1:0:-0.44873:-0.88623:0.223145:0.5:0.125:0.25
1562064487631856:0:-2:0:-1:2:-3:0:-1:-0.452148:-0.885742:0.22168:-0.375:-0.375:0.125
1562064487674860:-1:-2:-2:-1:1:0:-1:0:-0.449219:-0.890625:0.225586:0.25:-0.3125:-0.125
1562064487722865:1:0:-2:-1:6:0:-5:0:-0.452637:-0.885742:0.228027:-0.5:-0.1875:-0.3125
1562064487782871:-1:0:-4:3:-6:-3:1:2:-0.452148:-0.885254:0.223145:-0.25:-0.1875:-0.5625
1562064487820875:0:0:-2:-3:3:-2:-2:-1:-0.449219:-0.889648:0.225098:0.125:-0.375:-0.125
1562064487880881:1:-1:-1:-1:-1:1:-1:-2:-0.44043:-0.89209:0.222168:-0.25:-0.25:-0.5
1562064487932886:0:0:-1:-5:-16:-3:1:-2:-0.450195:-0.890625:0.217773:-0.625:-0.4375:-0.125
1562064487985891:-2:-2:-2:-3:-17:2:1:0:-0.447754:-0.88623:0.220703:0.125:-0.1875:0
1562064488033896:-1:-1:-1:-3:-8:3:3:-2:-0.444824:-0.890625:0.229004:-0.1875:-0.125:-0.25
1562064488083901:0:-1:-2:-2:-17:-5:6:-1:-0.447754:-0.888672:0.221191:0.125:0.25:0.0625
1562064488133906:-2:-1:0:-1:8:0:-2:0:-0.45166:-0.885254:0.218262:-0.75:0.1875:0.0625
1562064488172910:-2:1:-1:-2:0:1:0:0:-0.45166:-0.883301:0.228027:0.3125:0.125:-0.1875
1562064488232916:0:-1:0:1:-4:-4:-1:0:-0.453125:-0.887695:0.222656:-0.4375:-0.5625:-0.375
1562064488286921:-1:-1:-2:0:0:-3:-3:0:-0.449707:-0.886719:0.225586:0.0625:-0.375:-0.4375
1562064488332926:0:1:-2:6:7:2:1:1:-0.445801:-0.883789:0.229492:-0.4375:-0.125:-0.125
1562064488382931:0:0:0:0:-39:0:-1:-1:-0.448242:-0.88623:0.222168:-0.1875:0.3125:-0.0625
1562064488433936:-2:1:-1:-3:-9:-3:7:-1:-0.452148:-0.881836:0.22168:-0.0625:0.125:-0.1875
1562064488489942:0:-1:1:-1:-8:-1:0:-2:-0.450684:-0.888672:0.226562:-0.125:-0.1875:-0.3125
1562064488532946:-2:-2:-1:-1:18:1:-4:-1:-0.450195:-0.886719:0.226562:-0.25:-0.4375:-0.125
1562064488593952:1:1:0:-3:-5:-2:-5:-1:-0.442383:-0.888184:0.223633:-0.0625:0.1875:-0.4375
1562064488632956:0:0:0:-3:-12:-1:0:2:-0.454102:-0.881348:0.224609:-0.625:0.0625:-0.75
1562064488694962:0:-1:0:2:16:-2:-5:-2:-0.450195:-0.883301:0.225586:0.1875:0:0.125
1562064488742967:-1:-1:0:0:8:1:2:-1:-0.444824:-0.884766:0.224121:-0.4375:-0.3125:0.25
1562064488788972:0:0:0:0:-9:3:3:1:-0.456543:-0.881348:0.22168:0.25:-0.125:-0.3125
1562064488835976:0:-2:0:2:3:8:2:0:-0.449707:-0.88916:0.227539:-0.5625:-0.3125:-0.1875
1562064488895982:1:1:-1:0:-1:0:-2:0:-0.450684:-0.885742:0.225586:0.375:-0.1875:-0.5625
1562064488945987:-3:0:-1:-2:-39:-2:-4:-1:-0.449707:-0.888672:0.223145:-0.5:-0.25:-0.375
1562064488996992:-1:0:-2:0:3:2:-5:0:-0.455078:-0.881348:0.225586:0.0625:0.0625:0.3125
1562064489034996:1:-1:1:3:16:-3:0:0:-0.449707:-0.883301:0.224121:-0.5:0.0625:-0.25
1562064489096002:0:-2:1:-1:0:2:-1:1:-0.451172:-0.884277:0.22168:-0.1875:-0.125:-0.3125
1562064489149008:-2:-1:-2:0:9:3:-1:-1:-0.44873:-0.888184:0.217285:-0.6875:-0.5:0.0625
1562064489195012:0:0:-1:-3:-7:-1:-2:-1:-0.45166:-0.882324:0.222656:-0.3125:-0.375:-0.25
1562064489245017:-1:-1:0:5:2:-3:1:0:-0.45166:-0.883301:0.222168:-0.5:-0.125:-0.5
1562064489296022:1:-1:0:-2:1:-1:-1:-1:-0.453125:-0.886719:0.222656:0.125:0:-0.375
1562064489335026:-1:-1:0:0:-8:-2:0:-2:-0.450195:-0.883789:0.231934:-0.5:-0.3125:-0.1875
1562064489396032:0:-2:-2:-3:1:1:0:0:-0.453613:-0.884277:0.228516:0.125:-0.3125:-0.3125
1562064489449038:0:-1:1:2:3:-1:-1:1:-0.453125:-0.885254:0.229004:-0.5:-0.5625:-0.375
1562064489496042:2:-1:-1:0:7:-1:-4:-1:-0.442383:-0.88916:0.222168:0.0625:0.125:-0.9375
1562064489545047:-1:-1:-1:-3:-2:-1:7:-1:-0.453613:-0.888672:0.23291:-0.875:-0.125:-0.625
1562064489596052:-2:-1:0:0:5:-4:-2:1:-0.453125:-0.882812:0.222656:-0.75:-0.1875:-0.1875
1562064489652058:1:1:0:-2:1:0:1:0:-0.445801:-0.886719:0.228516:0.0625:-0.375:-0.375
1562064489695062:1:0:-1:-1:0:-1:-2:0:-0.449707:-0.88916:0.224609:-0.4375:-0.25:-0.875
1562064489755068:0:1:-1:-1:-4:-1:2:1:-0.447266:-0.89209:0.227051:-0.625:-0.125:0.25
1562064489796072:-2:-3:-1:3:2:-4:-2:-2:-0.449219:-0.886719:0.222168:0.0625:0.0625:-0.1875
1562064489855078:-2:-1:-2:-2:-9:-3:-1:0:-0.454102:-0.886719:0.227051:-0.4375:-0.0625:-0.3125
1562064489899083:-2:0:1:1:-3:2:-1:-1:-0.452148:-0.894043:0.221191:0.25:-0.0625:0.375
1562064489958089:-1:1:-1:-3:-10:4:2:1:-0.450684:-0.884277:0.221191:-0.625:-0.125:-0.375
1562064489995092:-2:-1:-1:-2:-10:-6:-10:-1:-0.450195:-0.884277:0.227051:-0.0625:0:-0.5
1562064490055098:0:-1:-1:-1:-17:-2:2:0:-0.450684:-0.885254:0.227539:-0.3125:-0.375:-0.1875
1562064490108104:-1:-1:-1:-4:4:-1:2:0:-0.44873:-0.883789:0.224609:-0.25:0:-0.0625
1562064490160109:53:-1:21:67:-9:-5:-5:1:-0.452148:-0.900879:0.209961:-2.0625:0.375:0
1562064490214114:83:-18:-30:-67:-2:-3:-11:41:-0.436035:-0.992188:0.269531:-12.6875:-11.625:23
1562064490258119:12:3:-36:-12:46:-12:-8:24:-0.292969:-0.899414:0.327148:-4.4375:-34.1875:26.25
1562064490311124:6:-4:-22:37:-64:-34:-5:-59:-0.554688:-0.659668:0.285156:5.375:0:9.4375
1562064490363129:56:7:-5:-2:-105:5:27:28:-0.43457:-0.782715:0.253906:27.125:-4.75:6.8125
1562064490408134:2:13:82:54:55:12:-2:9:-0.488281:-0.791504:0.239746:-43.625:-0.4375:-9.6875
1562064490459139:-119:6:-10:46:0:-21:-17:-51:-0.494629:-0.750488:0.212402:11.3125:-8.8125:-3.1875
1562064490514144:0:-1:-68:-46:34:-19:2:71:-0.446289:-0.95752:0.282715:-20.5:-2.5:-8.5
1562064490558149:-50:22:-19:-66:35:7:13:-57:-0.501953:-0.804688:0.236816:-10.4375:-1.625:-9
1562064490611154:-82:-30:21:94:3:-24:-9:24:-0.46875:-0.888672:0.219727:3.8125:-4.25:-5.0625
1562064490658159:-18:11:20:-67:-54:-32:-26:-57:-0.442871:-0.921875:0.217285:-0.9375:1.4375:-4.9375
1562064490708164:32:25:-23:30:-24:-1:-12:-37:-0.460449:-0.876953:0.242188:-1.9375:-1.875:3.875
1562064490761169:71:-52:-61:-3:-4:-34:-18:-87:-0.433594:-0.869629:0.210938:0.375:-4.375:3
1562064490813174:-59:-44:40:58:52:31:6:-15:-0.442383:-0.875488:0.239746:-10.125:1.0625:1.4375
1562064490859179:-87:-47:-38:68:64:-4:-15:-96:-0.478027:-0.837891:0.173828:0.6875:-5.5:-0.8125
1562064490911184:-16:0:-3:-19:-12:3:9:-13:-0.422363:-0.915039:0.26416:-10.1875:0.5:-2.75
1562064490962189:5:-38:24:-15:-26:7:-5:5:-0.474121:-0.902832:0.177246:-7.125:1:-4.4375
1562064491017194:0:4:-2:10:28:8:4:-4:-0.497559:-0.891602:0.151367:3.0625:-8.6875:-10.4375
1562064491062199:0:1:1:-3:3:1:2:2:-0.381348:-0.869629:0.31543:29.4375:1.1875:-12.875
1562064491114204:0:-2:0:4:10:4:0:-2:-0.432129:-0.900879:0.229492:3.5625:10.0625:-4.5
1562064491161209:-2:0:3:31:-20:-7:-1:1:-0.43457:-0.905762:0.243652:2.3125:10.375:-0.8125
1562064491210214:1:0:-3:-8:-6:0:-2:-2:-0.460449:-0.881836:0.222656:-0.8125:2.625:1.8125
1562064491262219:-1:1:-1:-22:-4:-1:0:-1:-0.439941:-0.894043:0.245117:-0.5:2.875:3.1875
1562064491317224:-2:-2:-2:-22:-11:-5:-1:-2:-0.447266:-0.887207:0.23584:-3.75:6:0.5625
1562064491361229:-1:0:3:-3:2:-4:-1:0:-0.455078:-0.891113:0.236328:-2.9375:5.4375:1.5
1562064491421235:1:0:-3:-18:-2:2:-1:0:-0.446289:-0.888672:0.223633:1.0625:4.5625:1.9375
1562064491461239:-1:-1:0:8:2:5:-2:0:-0.450684:-0.882812:0.222656:1:3.625:0.8125
1562064491521245:0:-1:0:9:5:4:2:0:-0.458008:-0.884766:0.228516:-0.4375:1.9375:0.625
1562064491570250:-3:0:4:4:-13:-1:-2:1:-0.450195:-0.88623:0.228516:2.0625:2.3125:-0.125
1562064491615254:1:1:1:17:-14:0:2:-2:-0.456055:-0.881836:0.225586:0.0625:1.5:1.5625
1562064491660259:-1:1:-1:1:1:1:2:0:-0.453613:-0.893066:0.236816:0.875:1.8125:1.625
1562064491720265:-1:-2:0:-2:12:-3:1:-1:-0.458984:-0.875977:0.228516:0.9375:0.6875:1.4375
1562064491761269:0:-3:-1:7:-4:-3:3:1:-0.460938:-0.874512:0.231445:0.0625:-0.1875:0
1562064491819275:0:0:-6:-6:7:0:-9:0:-0.459473:-0.875488:0.226074:1.0625:0.4375:-0.625
1562064491863279:0:1:1:-1:0:-6:1:-3:-0.452637:-0.883789:0.235352:-0.125:0.5:-0.5
1562064491916284:0:-1:-1:-8:7:-1:-1:0:-0.453125:-0.879395:0.23291:-0.25:1.3125:-0.3125
1562064491960289:-2:-3:-2:-2:1:-2:-6:-2:-0.461914:-0.882812:0.225098:-0.625:0.625:0
1562064492021295:0:-1:-2:-3:4:2:-1:0:-0.457031:-0.873047:0.23291:0.375:0.375:-0.4375
1562064492064299:0:0:1:3:-8:-3:-1:0:-0.459961:-0.886719:0.227051:-0.6875:-0.1875:-0.25
1562064492119305:-2:0:-1:0:11:1:0:0:-0.457031:-0.879395:0.225098:-0.6875:-1:-0.0625
1562064492162309:-2:-2:-2:-1:46:1:6:-2:-0.451172:-0.877441:0.234863:0.125:-0.1875:-0.875
1562064492222315:0:-1:-1:-3:-11:2:-2:-1:-0.458496:-0.875:0.236816:-0.125:0.1875:-0.5625
1562064492261319:0:-2:-1:-2:-4:-2:-4:-2:-0.455566:-0.87793:0.225586:-0.1875:0.25:-0.6875
1562064492313324:0:-1:-2:-1:3:1:0:0:-0.45459:-0.889648:0.231934:0.625:0.4375:-0.5
1562064492372330:0:0:-1:-1:-4:1:1:-1:-0.460938:-0.878418:0.234375:0.25:-0.0625:-0.5
1562064492424335:-1:-1:-3:-1:1:-1:0:0:-0.455566:-0.883301:0.226074:-0.3125:-0.625:-0.3125
1562064492463339:0:0:-2:1:8:-2:1:2:-0.453125:-0.879395:0.233887:0.875:0.0625:-0.9375
1562064492523345:0:-1:-1:2:5:0:0:0:-0.458496:-0.881348:0.229492:-0.5625:0.1875:0.1875
1562064492576350:1:0:1:1:1:1:9:1:-0.45459:-0.881836:0.235352:-0.25:0.3125:0.1875
1562064492624355:-1:-3:-2:-3:-15:-2:-1:0:-0.459473:-0.882812:0.233887:-0.5625:0.25:-0.3125
1562064492673360:1:-2:-2:0:-5:-2:0:2:-0.458984:-0.883301:0.23584:0.0625:0.3125:-0.375
1562064492725365:-1:-1:-2:2:10:3:-2:-1:-0.456543:-0.881836:0.236328:-0.3125:-0.125:-0.25
1562064492778371:0:0:0:0:6:-1:-1:0:-0.452148:-0.884277:0.230957:0.375:0.3125:-0.1875
1562064492830376:-3:-2:0:1:2:0:-1:0:-0.456543:-0.880859:0.229492:0.125:0.0625:-0.1875
1562064492883381:-1:-1:1:0:10:0:0:1:-0.456543:-0.884766:0.230957:-0.8125:0.125:-0.0625
1562064492926385:-1:-3:-1:3:12:-4:-1:0:-0.458008:-0.882812:0.233887:0.875:0.3125:0.125
1562064492981391:-1:0:1:-1:0:1:-1:1:-0.464355:-0.879395:0.230469:-0.9375:-0.375:-0.0625
1562064493025395:0:0:-4:-4:-15:-5:-2:0:-0.453125:-0.883789:0.228516:0.75:-0.25:-0.125
1562064493085401:-1:1:-1:-2:4:0:-1:1:-0.465332:-0.878906:0.234375:-1.5625:-0.25:-0.8125
1562064493122405:0:-2:-1:3:8:2:0:-1:-0.464844:-0.878906:0.230469:0.6875:-0.4375:-0.6875
1562064493183411:-1:-1:1:0:-3:0:-2:-2:-0.456543:-0.883301:0.234375:-0.4375:-0.8125:-0.375
1562064493223415:0:0:0:4:-9:-6:-3:-2:-0.452637:-0.888672:0.230469:-0.1875:-0.3125:-0.1875
1562064493284421:-1:1:-1:2:21:1:-4:1:-0.456543:-0.877441:0.234375:-0.375:-0.4375:-0.375
1562064493325425:0:2:2:-3:-4:1:0:0:-0.457031:-0.882324:0.23584:-0.125:0.3125:-0.1875
1562064493366429:-1:-2:-1:-1:4:0:-1:-2:-0.455566:-0.883789:0.233398:0.375:0.1875:-0.375
1562064493426435:-1:0:-1:2:10:1:2:0:-0.458496:-0.880371:0.231934:-0.625:-0.125:0.0625
1562064493485441:-3:-1:-3:-2:7:-1:5:-2:-0.458008:-0.880371:0.23291:0.625:0.0625:-0.3125
1562064493527445:-1:-1:-1:0:2:-1:-4:0:-0.463379:-0.879883:0.230957:-0.1875:-0.3125:-0.3125
1562064493587451:0:0:-1:-1:1:-4:3:1:-0.456543:-0.879395:0.237305:0.0625:-0.375:-0.1875
1562064493625455:-1:-1:1:-4:-12:-2:-3:-1:-0.45459:-0.883789:0.233887:0.125:-0.5:-0.25
1562064493681461:0:-1:-2:-2:-1:1:-5:0:-0.458496:-0.87793:0.236816:-0.0625:-0.3125:-0.4375
1562064493726465:-1:1:-3:-2:-8:-7:-1:1:-0.455078:-0.881836:0.232422:0.5:-0.1875:-0.3125
1562064493786471:-2:-1:1:-3:3:-4:-3:-1:-0.460449:-0.875977:0.23584:-0.25:-0.375:-0.1875
1562064493828476:0:-1:1:-1:3:0:2:0:-0.454102:-0.878906:0.240234:0.1875:-0.125:-0.3125
1562064493887481:-1:0:-1:0:-6:1:1:0:-0.460938:-0.873047:0.236328:-0.3125:-0.25:-0.25
1562064493941487:0:-2:0:1:-9:0:-1:1:-0.456055:-0.885742:0.23584:0.4375:-0.125:0.125
1562064493985491:-2:-2:-1:-4:-8:-2:-7:-1:-0.454102:-0.879395:0.23584:-0.625:0.1875:-0.4375
1562064494041497:0:0:0:4:20:3:1:0:-0.45752:-0.878906:0.23291:-0.5625:-0.125:0.0625
1562064494086501:1:0:-1:-3:-13:-3:-1:0:-0.457031:-0.87793:0.232422:-0.0625:-0.0625:0.0625
1562064494127505:1:-1:0:2:18:-2:2:-1:-0.457031:-0.882324:0.234375:-0.25:0.0625:-0.25
1562064494188512:-1:1:0:1:17:0:1:-1:-0.462402:-0.876465:0.234863:0.0625:0:-0.1875
1562064494240517:-1:-2:0:-4:-14:3:-3:-1:-0.455566:-0.881348:0.231934:0.1875:-0.0625:0
1562064494285521:-1:1:-1:-1:5:0:0:-2:-0.460449:-0.880859:0.237793:-0.5:-0.4375:-0.125
1562064494341527:4:-1:0:-39:-15:-1:4:1:-0.460938:-0.887207:0.22998:-2.1875:-0.5625:-0.0625
1562064494386531:34:9:1:-63:7:3:2:-4:-0.469727:-0.909668:0.204102:-7.375:-6.5625:3.625
1562064494443537:-125:-19:3:-59:-16:3:1:16:-0.507812:-0.790039:0.159668:-6.875:-15.875:14.625
1562064494488542:14:-9:39:127:28:-43:-20:-57:-0.485352:-0.821289:0.270996:54.8125:-1.875:9.3125
1562064494540547:112:14:-23:74:56:-8:-3:-4:-0.410156:-0.838867:0.322754:-2.875:2.75:13.4375
1562064494588552:-35:5:-41:-128:-43:-5:-5:-33:-0.50293:-0.848633:0.214355:-9.1875:-1.5:2.8125
1562064494648558:-21:46:-23:-66:-114:-11:2:15:-0.469238:-0.836426:0.266113:-13.8125:3.25:-3.8125
1562064494698563:-2:-12:-6:-3:60:-13:-13:25:-0.494629:-0.930176:0.214844:-12.75:-10.0625:-4.0625
1562064494742567:-68:-10:37:-27:33:-16:-3:-11:-0.443848:-0.925293:0.272461:-21.0625:-5.3125:-2.9375
1562064494787571:-29:21:22:-43:74:-13:12:43:-0.443359:-0.820801:0.257324:-7.25:0.625:-0.375
1562064494847577:46:12:49:107:14:12:4:7:-0.487793:-0.854492:0.229492:-8.375:-2.6875:0.5
1562064494888582:21:1:39:98:-63:20:5:13:-0.473145:-0.892578:0.223145:-0.6875:-0.125:-3.1875
1562064494949588:-18:17:2:116:-2:-15:-8:-30:-0.468262:-0.890625:0.248535:0.5:-5.375:1.125
1562064494990592:20:-10:77:-40:-13:-3:7:-6:-0.445312:-0.847656:0.221191:3.5:-5.125:-0.1875
1562064495043597:-11:7:-19:-64:-52:-11:-14:49:-0.481445:-0.860352:0.255371:1.9375:3.75:-1.375
1562064495087601:-11:-45:-36:11:39:16:19:37:-0.489746:-0.836914:0.265625:-1.4375:-1.1875:1.4375
1562064495147607:43:-12:-9:-24:38:-27:-7:51:-0.446289:-0.890625:0.234863:1.125:0.375:2.375
1562064495188612:18:8:13:48:29:8:2:5:-0.466309:-0.825195:0.269043:2.8125:1.8125:0.875
1562064495248618:-9:5:-3:1:-3:-8:1:-23:-0.46875:-0.918945:0.253418:-11:7.75:-1.1875
1562064495290622:3:-1:-2:-26:-7:-10:-5:-2:-0.470703:-0.875:0.182617:-3.5:-5.3125:-12.25
1562064495350628:-2:-2:-3:79:8:-6:-1:-5:-0.475586:-0.870117:0.227539:25.625:-3.375:-15.125
1562064495394632:0:-1:1:2:11:-2:-1:-1:-0.429199:-0.901855:0.259277:5.625:2.5625:-6.875
1562064495447637:-1:1:-1:6:7:-5:-1:-3:-0.435059:-0.907715:0.245605:5.4375:9.8125:-1.875
1562064495492642:1:0:-2:-4:0:-2:-1:0:-0.45752:-0.880859:0.231445:2:11.125:1.625
1562064495545647:-2:-3:0:-10:3:-4:2:0:-0.46875:-0.880371:0.234375:2.75:4.8125:4.8125
1562064495590652:-1:0:0:10:-1:-2:-1:0:-0.466797:-0.864746:0.242676:1.4375:1.6875:0.6875
1562064495650658:1:-1:-1:-12:1:-3:-1:-1:-0.459473:-0.878418:0.240234:-0.1875:2.6875:0
1562064495702663:0:-2:0:2:-1:0:-1:0:-0.462402:-0.87793:0.233887:0.75:1.75:-1.125
1562064495750668:0:0:1:11:4:-3:-3:0:-0.463379:-0.886719:0.239746:0.3125:1.1875:-0.75
1562064495792672:-1:-1:2:-2:-5:-1:0:0:-0.459473:-0.871582:0.238281:-0.6875:1.1875:0.4375
1562064495845677:-1:-3:0:-5:8:-2:-1:0:-0.456543:-0.875:0.239746:0.75:2:0.75
