1562062762949399:-2:-2:-10:3:6:-1:-1:0:-0.256348:-0.855469:0.472656:0.5:-0.6875:-0.0625
1562062763008405:-2:0:5:3:5:0:-3:-3:-0.260742:-0.851074:0.46582:1.25:0:0.125
1562062763061410:1:-2:3:-8:4:0:1:-1:-0.262207:-0.856445:0.464844:1.4375:-0.125:-0.4375
1562062763105414:0:4:-2:-2:-11:-1:-1:-2:-0.262695:-0.855957:0.474121:1.5625:-0.5625:-0.5
1562062763151419:-3:-4:-29:-12:-7:-1:-1:-2:-0.265137:-0.855957:0.473145:2.5:-1.25:-0.9375
1562062763211425:-1:-2:-8:-10:0:0:-1:0:-0.26709:-0.852051:0.484375:2.875:-2.4375:-0.375
1562062763263430:0:-4:-7:-13:-5:-1:0:-2:-0.260742:-0.848633:0.483887:2.0625:-1.3125:-0.4375
1562062763311435:0:5:3:15:3:1:0:2:-0.255371:-0.851074:0.477051:1.125:-1:-0.375
1562062763353439:1:-2:2:23:-1:0:-1:-1:-0.257812:-0.846191:0.484863:1.1875:-0.625:-0.0625
1562062763414445:0:-1:-5:1:3:-1:-1:-2:-0.248535:-0.851562:0.480957:1.5:-1:-0.25
1562062763466450:-1:-2:-1:6:4:-2:-2:-1:-0.259766:-0.844238:0.485352:1.9375:-0.9375:-0.1875
1562062763511455:1:4:28:1:2:0:2:1:-0.255859:-0.851562:0.489258:0.25:-0.5625:0.1875
1562062763563460:2:1:6:12:8:1:-1:-1:-0.254883:-0.84375:0.486328:1:-0.5625:0
1562062763611465:-3:-4:-4:28:5:-5:-6:-4:-0.257812:-0.849121:0.48877:0.8125:-0.5625:-0.4375
1562062763669471:-1:-1:-6:-5:7:1:0:0:-0.258789:-0.849121:0.496094:1.6875:-0.9375:-0.25
1562062763713475:-1:-1:0:-4:-15:-2:-2:-1:-0.250977:-0.84668:0.492188:0.5625:-1.5625:-0.0625
1562062763766480:-1:-1:2:-7:1:0:-2:0:-0.259277:-0.848145:0.496094:2.3125:-1.125:-0.125
1562062763811485:-1:2:-3:-4:8:0:1:-2:-0.260742:-0.844727:0.490723:3.375:-1.6875:-0.5
1562062763870491:-1:1:2:12:-1:-1:-3:-1:-0.250488:-0.834473:0.499512:3.1875:-2:0
1562062763916495:1:7:25:2:-12:1:0:3:-0.251953:-0.836914:0.494141:1.875:-1.9375:-0.25
1562062763968501:2:3:23:-11:3:2:1:1:-0.251953:-0.834473:0.501465:2:-1:-0.125
1562062764014505:-2:-4:-9:7:-5:-4:-4:-4:-0.25293:-0.837402:0.504883:1.5:-0.8125:-0.25
1562062764065510:1:-1:-3:-1:7:0:2:-2:-0.248535:-0.84082:0.508789:1.5:-1:-0.0625
1562062764113515:-2:-5:-9:-2:0:-1:-4:-1:-0.250977:-0.836914:0.506836:0.5625:-0.625:-0.0625
1562062764173521:-2:-2:5:-1:-3:-1:0:-1:-0.258789:-0.836914:0.515625:1.0625:-0.5:0.3125
1562062764216525:-2:-2:0:2:5:-1:-1:-2:-0.246094:-0.833496:0.502441:1.25:-0.25:0.0625
1562062764268531:-1:3:5:-3:15:0:-1:-2:-0.256836:-0.836426:0.518555:1.3125:-0.4375:0
1562062764313535:-2:-2:-3:5:5:-1:0:-2:-0.256348:-0.835449:0.512207:0.4375:-0.5:0.375
1562062764374541:-2:-3:-6:3:-1:0:0:1:-0.250488:-0.832031:0.513184:0.9375:-0.75:0
1562062764425546:-2:-2:-7:3:-6:-2:-2:-1:-0.254395:-0.830566:0.512207:1.9375:-0.9375:0
1562062764473551:-1:0:0:4:22:1:2:0:-0.249023:-0.835938:0.520996:2.4375:-1:-0.5625
1562062764516555:1:-4:-13:-11:-17:-3:0:2:-0.253418:-0.824707:0.518066:1.9375:-0.625:-0.125
1562062764577561:0:-1:0:-4:-5:1:-1:-1:-0.249023:-0.832031:0.52002:0.875:-0.3125:-0.25
1562062764628567:0:-1:-1:6:4:-2:0:-1:-0.25:-0.82959:0.516113:1.3125:-0.3125:-0.125
1562062764673571:0:-1:0:-1:-24:-1:-1:3:-0.249023:-0.828125:0.527344:0.25:0.0625:-0.375
1562062764726576:2:0:-1:-15:-2:1:-1:-1:-0.248047:-0.822754:0.520996:0.5:0:-0.3125
1562062764774581:-1:-1:0:6:-4:-1:-2:-1:-0.248535:-0.828613:0.520996:-0.1875:-0.625:-0.0625
1562062764831587:0:0:1:-3:-5:-3:-1:0:-0.249512:-0.827637:0.519531:1.5625:-1.0625:0
1562062764876591:1:0:1:-2:4:0:2:0:-0.253906:-0.830078:0.527344:0.375:-0.5625:-0.125
1562062764928597:1:1:0:5:-5:-1:-3:-1:-0.248535:-0.826172:0.524414:-1.0625:-0.375:-0.1875
1562062764975601:-1:-2:-2:-9:-3:-1:0:-2:-0.249512:-0.826172:0.521973:0.25:-0.375:-0.1875
1562062765021606:0:-1:-4:3:2:-2:1:1:-0.24707:-0.825684:0.527344:0.375:-0.125:0.25
1562062765081612:-1:-2:-2:1:7:0:-1:0:-0.248047:-0.822266:0.52832:-0.4375:0:0
1562062765130617:-1:0:1:4:13:0:-2:-1:-0.246094:-0.82666:0.525391:0.3125:-0.4375:0
1562062765179622:0:1:-1:-12:1:1:2:1:-0.245117:-0.829102:0.529297:0.4375:-0.75:0.375
1562062765228627:1:-4:2:15:4:-1:0:-1:-0.246094:-0.823242:0.528809:-0.75:-0.25:-0.1875
1562062765279632:1:1:1:-8:-14:0:0:1:-0.251953:-0.822754:0.530273:0.125:-0.25:-0.125
1562062765333637:-1:1:1:8:1:-1:0:0:-0.251465:-0.822754:0.533691:-0.375:-0.125:-0.125
1562062765381642:-1:0:-1:-2:1:-1:1:-1:-0.246094:-0.828125:0.527832:-0.25:-0.0625:-0.25
1562062765431647:-1:-2:-1:1:-25:3:-5:-3:-0.249023:-0.818848:0.529785:-1.625:-1.125:-1.5625
1562062765479652:0:0:-1:-7:-3:3:0:1:-0.245605:-0.82959:0.523926:-4.8125:-1.5:-1
1562062765527656:-2:-2:-4:-6:-4:-3:-2:-3:-0.248535:-0.836426:0.529297:0.125:-1.75:-0.6875
1562062765583662:-1:1:2:1:6:2:11:-5:-0.242188:-0.832031:0.517578:-6.5625:-4.25:-1.0625
1562062765632667:-1:-2:-4:-2:-3:-6:-4:-3:-0.244629:-0.838867:0.524902:1.1875:-4.75:-0.4375
1562062765681672:-3:0:-1:4:0:-1:-3:0:-0.234863:-0.835938:0.518555:-0.125:-4.625:1.0625
1562062765730677:0:0:-4:-3:3:-2:-6:-2:-0.241211:-0.824707:0.532715:2.625:-3.875:0.8125
1562062765779682:-1:-1:0:3:-7:0:1:0:-0.237793:-0.814453:0.525879:-0.8125:0.1875:-0.5
1562062765828687:1:2:0:3:3:1:0:-1:-0.236816:-0.835449:0.52832:-0.0625:0.8125:-0.1875
1562062765887692:1:-2:-1:4:1:1:-1:-3:-0.241699:-0.822266:0.529297:1.875:1:0.25
1562062765933697:0:-2:0:3:0:2:1:-1:-0.236816:-0.820801:0.532227:0.875:0.6875:0
1562062765983702:-1:2:0:24:7:1:-2:0:-0.23877:-0.827637:0.53125:1.625:0.875:0.0625
1562062766031707:-1:0:3:-7:8:0:-2:-1:-0.241699:-0.831543:0.533691:1.0625:0.5:0
1562062766081712:-1:-1:-2:-10:4:-1:10:-1:-0.239746:-0.827637:0.536621:1.0625:0.125:0.1875
1562062766137717:0:0:0:-8:-1:-1:-3:-1:-0.240723:-0.824707:0.529785:0.75:0.625:0.1875
1562062766184722:0:1:0:6:7:1:-2:1:-0.239746:-0.824219:0.535645:1.125:0.5:0.25
1562062766232727:-3:0:0:-6:2:0:0:-1:-0.242188:-0.822266:0.535156:0.75:0.5625:0.125
1562062766281732:-1:-2:0:5:-15:-1:-2:1:-0.244141:-0.825195:0.532227:0.9375:0.1875:0.1875
1562062766341738:-4:-1:-3:-5:1:0:-1:-3:-0.239746:-0.825195:0.536621:0.125:-0.125:0.1875
1562062766391743:-2:-1:-2:5:-3:-2:-2:-3:-0.242676:-0.822754:0.536133:0.0625:-0.125:0.3125
1562062766442748:-1:-2:-2:-1:-3:-2:-1:-1:-0.242188:-0.81543:0.539062:-0.6875:-0.0625:0.125
1562062766483752:1:0:-1:-6:-2:-2:-2:-1:-0.243652:-0.826172:0.535156:-0.625:0.375:-0.0625
1562062766544758:0:0:0:4:5:-3:-2:1:-0.245117:-0.826172:0.53418:-1:0.125:-0.1875
1562062766581762:-1:0:-1:-8:-3:0:-1:0:-0.244629:-0.824219:0.534668:0.375:-0.1875:0.125
1562062766641768:1:0:-2:-12:1:1:2:-2:-0.246582:-0.821289:0.536133:-1.25:0.4375:-0.1875
1562062766690773:-1:0:-3:5:2:-1:-9:-1:-0.245605:-0.824219:0.530273:-1.375:0.125:-0.25
1562062766742778:0:0:0:10:1:-1:0:-2:-0.244141:-0.82373:0.528809:-0.625:-0.25:0.0625
1562062766784782:-1:-1:-1:-6:2:-2:0:-2:-0.240723:-0.822266:0.52832:-0.0625:-0.25:-0.0625
1562062766843788:1:-2:-2:-16:-12:1:-1:0:-0.243652:-0.818359:0.529297:-0.1875:0:-0.1875
1562062766893793:-1:-1:3:12:-3:0:-1:0:-0.244141:-0.820312:0.53418:-0.3125:0.0625:-0.3125
1562062766944798:-1:-1:-2:-7:-3:-1:1:-1:-0.246094:-0.819824:0.530273:-0.375:-0.25:0.125
1562062766983802:0:-2:-2:3:0:2:2:-1:-0.246094:-0.825195:0.527344:-0.875:-0.0625:-0.1875
1562062767042808:-1:-1:-7:-19:-3:4:-3:-2:-0.228516:-0.813965:0.544922:-13.5625:1:1.3125
1562062767096813:-2:-2:-4:-12:22:-2:0:-4:-0.244141:-0.82666:0.525391:-37.4375:3:1.3125
1562062767143818:0:-1:1:1:-9:-3:3:1:-0.25:-0.861328:0.493652:-20.375:8.3125:2.9375
1562062767193823:2:2:1:-5:4:6:0:1:-0.25:-0.837402:0.47168:-30.25:7.4375:2.875
1562062767244828:1:0:2:12:35:12:9:3:-0.26416:-0.874023:0.442383:-22.1875:10.0625:2.6875
1562062767283832:3:3:9:12:10:4:1:0:-0.266602:-0.866699:0.431152:-23.5:8.875:2.4375
1562062767342838:-1:-2:-3:-5:-7:-5:-4:-1:-0.266602:-0.89502:0.415527:-29.6875:14.25:7.5625
1562062767395843:-3:-1:0:8:3:2:0:1:-0.277344:-0.883789:0.381836:-37.125:21.0625:6.6875
1562062767444848:-1:0:0:-9:-4:2:0:0:-0.287109:-0.910156:0.351074:-42.4375:25.625:9.9375
1562062767492853:2:3:7:0:0:0:0:1:-0.327148:-0.888672:0.292969:-52.4375:33.6875:12.25
1562062767544858:-2:-3:-5:-9:-4:-1:0:-1:-0.334961:-0.912109:0.232422:-58.6875:36.125:9.25
1562062767599864:0:3:7:4:0:1:-2:-13:-0.343262:-0.921387:0.192871:-49.5625:40:0.6875
1562062767646868:-4:-1:-13:-6:1:-1:-1:-3:-0.333984:-0.935547:0.155273:-38.1875:45.75:-13.8125
1562062767695873:-1:-1:0:-7:4:2:-3:0:-0.344238:-0.918945:0.108398:-29.75:52.8125:-26.5
1562062767747878:2:5:10:16:1:-1:-1:1:-0.306152:-0.980469:0.019043:-28.375:40.5:-14.125
1562062767793883:1:-2:-1:-2:-1:-3:-1:1:-0.335449:-0.983887:-0.0239258:-32:28.0625:-11.9375
1562062767845888:-1:0:5:8:-1:-2:-2:-3:-0.333008:-0.996582:-0.0161133:-8.125:11.125:-10.5625
1562062767899894:1:1:-3:-25:1:-1:2:0:-0.303223:-0.977539:-0.0200195:-1.5:-0.875:1.125
1562062767943898:0:-2:-4:0:-4:-2:1:-2:-0.29834:-1.00195:0.00537109:7.875:-3.0625:0.8125
1562062768003904:-1:-2:-3:17:-1:0:-2:-1:-0.300293:-0.955078:0.0185547:-3.25:-2.5:-0.125
1562062768046908:2:1:2:-8:-1:0:0:2:-0.301758:-0.994141:0.0239258:3.0625:1:0.25
1562062768101914:-1:-2:-6:-8:-2:-1:1:-1:-0.302246:-0.974609:0.0131836:-3.0625:0.4375:-0.25
1562062768145918:0:-3:-2:-13:-1:0:0:-1:-0.304199:-0.987793:0.0151367:2.625:-0.875:0.6875
1562062768205924:-1:0:-2:-21:2:1:-1:0:-0.305664:-0.974609:0.0107422:-0.5:-0.75:0.375
1562062768246928:-1:-1:-2:13:0:-2:-2:2:-0.29834:-0.981445:0.015625:2.375:-0.125:0.5625
1562062768306934:-1:0:-3:-7:1:-1:2:0:-0.307617:-0.974121:0.0205078:-2.125:-0.0625:0.0625
1562062768355939:0:-2:-2:-1:-4:0:5:1:-0.305664:-0.980957:0.00927734:0.375:0:-0.1875
1562062768407944:-2:-4:-8:0:2:-1:-3:-5:-0.303223:-0.961426:0.0166016:3.9375:-0.25:0
1562062768445948:0:0:-2:-1:-1:3:7:-15:-0.305664:-0.977051:0.0317383:-0.5:-1.0625:0
1562062768507954:0:-2:-4:-1:0:2:4:7:-0.304688:-0.975586:0.0170898:-1.0625:-1.625:-0.375
1562062768559960:0:0:-1:-32:2:6:0:-15:-0.310059:-0.98291:0.0161133:-4.8125:-7:1.75
1562062768606964:-1:0:-1:-4:-5:-2:-4:0:-0.30957:-0.990723:0.0078125:-4.375:-11.625:4.875
1562062768655969:-1:-4:-8:0:0:2:-1:3:-0.316895:-1.00635:0.00976562:1.5:-15.5625:11.625
1562062768707974:-1:-1:2:0:0:-4:-4:8:-0.325195:-0.996582:-0.00683594:8.5625:-26.3125:25.6875
1562062768760980:-1:1:4:-1:1:-3:-2:-6:-0.348145:-0.991211:0.0141602:15.75:-31.5:29.1875
1562062768805984:-2:0:-2:8:-3:-1:1:-6:-0.387207:-0.987793:0.0249023:13.25:-44:42.5625
1562062768858990:-1:0:-2:-21:-5:-6:-6:-1:-0.41748:-0.922363:0.0644531:15.1875:-58.125:52.9375
1562062768908995:-2:-1:-1:2:1:1:3:-2:-0.446289:-0.902832:0.0869141:9.6875:-72.75:53.625
1562062768966000:1:1:2:-1:4:4:-2:1:-0.477051:-0.865723:0.124512:12.25:-84.875:52.0625
1562062769008004:1:0:-4:-32:1:-1:7:-4:-0.48291:-0.856445:0.194336:13.375:-98:46.9375
1562062769062010:1:-2:-1:8:4:1:-3:0:-0.473145:-0.821289:0.280762:4.625:-103.812:41.6875
1562062769109015:-1:1:-2:1:3:0:-2:-6:-0.48291:-0.803711:0.314453:-1.9375:-102.875:35.75
1562062769159020:-2:-1:1:-3:-6:-2:0:-1:-0.507812:-0.780762:0.399414:-10.1875:-78.5625:31.4375
1562062769209025:-2:-1:0:-9:0:-3:0:-2:-0.408203:-0.82666:0.492188:2.0625:-64.1875:32.3125
1562062769264030:0:-1:-3:-6:3:-1:0:-2:-0.45166:-0.736816:0.481445:-0.8125:-37.875:20.1875
1562062769315035:0:-1:-5:3:1:1:1:0:-0.470703:-0.757324:0.471191:-4.4375:-26.0625:15.1875
1562062769368040:-1:0:5:21:2:-3:-1:-3:-0.468262:-0.757812:0.480957:12.6875:-11.3125:6.25
1562062769409045:-2:-2:-2:5:12:4:0:0:-0.489746:-0.712402:0.483398:14.1875:-2.1875:-0.375
1562062769469051:-1:0:-5:0:-1:1:-3:0:-0.481934:-0.78418:0.464844:-1.125:3.5:-8.75
1562062769519056:0:0:0:-11:2:1:1:0:-0.475098:-0.769531:0.463379:19.125:8.0625:-9
1562062769572061:0:-1:1:-11:4:0:0:0:-0.494141:-0.743164:0.465332:12.4375:11.625:-8.4375
1562062769609065:0:0:-5:-3:-3:-9:-3:0:-0.480957:-0.743652:0.461426:-3.1875:11:-7.6875
1562062769668070:0:0:1:-1:-3:-2:1:-1:-0.465332:-0.779785:0.468262:0.9375:14.4375:-3.625
1562062769722076:0:1:2:7:7:5:1:1:-0.483887:-0.75293:0.455566:-0.375:17.0625:-4.125
1562062769773081:-1:-1:2:-2:-1:-3:0:0:-0.495117:-0.763672:0.450684:0.6875:19.0625:-4.8125
1562062769828086:0:0:-3:-3:-14:-5:-2:0:-0.496094:-0.761719:0.45752:1.25:21.9375:-5.5
1562062769871091:-2:0:0:4:-1:-3:-3:-4:-0.496582:-0.772461:0.435059:-2.5625:25.4375:-7.5625
1562062769924096:-3:-1:0:0:5:-1:-2:-1:-0.508789:-0.763184:0.424805:0.3125:29.6875:-8.375
1562062769969101:-1:1:3:-1:-2:1:0:0:-0.52832:-0.764648:0.402832:-2.5:33.625:-10.8125
1562062770021106:-1:-3:0:3:-5:-3:-3:-2:-0.524902:-0.778809:0.368652:-6.3125:40.125:-14.5625
1562062770081112:1:0:-1:-3:0:-1:1:-2:-0.509766:-0.80957:0.368652:-1.8125:41.4375:-14.5625
1562062770132117:-1:0:-4:-2:0:-1:-2:-2:-0.513184:-0.790527:0.334961:-1.6875:45.875:-17.5
1562062770179122:0:-1:-4:-7:0:2:1:0:-0.524414:-0.807129:0.326172:2.9375:47.25:-21.1875
1562062770231127:0:-1:0:-1:3:1:1:-3:-0.53418:-0.801758:0.291016:0:44.75:-24.4375
1562062770284132:1:-1:-1:-6:1:2:0:0:-0.514648:-0.828125:0.270508:-7.125:42.0625:-25.375
1562062770332137:-1:1:1:2:0:-2:0:-1:-0.508789:-0.863281:0.243652:2.6875:37.1875:-24.3125
1562062770381142:-1:-1:1:0:-5:-3:0:3:-0.507324:-0.84082:0.23291:-1.5625:35.375:-22.4375
1562062770432147:-2:-2:-6:-2:-2:-1:0:-1:-0.493164:-0.881836:0.210449:-6.125:31.4375:-17
1562062770486152:-2:1:2:-4:-6:-2:-1:4:-0.488281:-0.875488:0.205566:-2.3125:29.6875:-13.625
1562062770531157:-1:-1:0:-1:1:0:2:-1:-0.489258:-0.885254:0.188965:-5.5:27.625:-10.6875
1562062770584162:-1:-3:-8:-5:2:-3:-2:0:-0.483398:-0.87793:0.181641:-6.375:27.5625:-8.9375
1562062770631167:2:1:-3:7:4:1:-2:0:-0.487305:-0.886719:0.151855:-10.8125:25.9375:-7.1875
1562062770673171:0:0:-1:-2:-1:-2:-4:0:-0.482422:-0.887695:0.133789:-8.625:24.3125:-6.4375
1562062770734177:-2:-2:-1:2:-1:-2:1:3:-0.489258:-0.898926:0.117676:-9.1875:19.375:-4.9375
1562062770787182:-3:-3:-8:-7:-1:2:-1:-8:-0.490234:-0.910156:0.103516:-9.5:15.5:-1.9375
1562062770831187:-1:-4:-4:6:-7:-9:-5:-6:-0.483398:-0.906738:0.0795898:-6.875:7.375:4.1875
1562062770884192:0:1:5:-12:-3:0:3:2:-0.497559:-0.902344:0.0693359:-3.0625:-2.125:11.25
1562062770934197:-1:0:1:-21:0:-4:-6:-2:-0.508789:-0.907227:0.0649414:-5.375:-10.1875:14.0625
1562062770974201:0:-3:-10:-4:1:-3:1:7:-0.519043:-0.910156:0.0629883:-4.5:-18.4375:20.9375
1562062771033207:0:1:5:-2:-2:2:4:0:-0.518555:-0.899902:0.0791016:-5.5625:-30.4375:30.125
1562062771087212:-2:2:4:5:-9:-4:-6:-1:-0.552246:-0.874023:0.101562:-7:-39.5625:40.75
1562062771134217:2:-3:-11:-1:0:4:6:4:-0.574707:-0.861816:0.128418:-5.3125:-41.1875:47.375
1562062771184222:-2:0:2:3:4:-4:-5:-16:-0.592773:-0.799316:0.131836:-10.0625:-47.3125:49.9375
1562062771235227:1:2:5:0:12:2:-4:2:-0.616699:-0.79248:0.157715:-16.625:-49.5:53.5
1562062771290233:-1:2:6:-14:-6:-4:-2:-2:-0.631348:-0.741699:0.163574:-21.1875:-53.5:51.5
1562062771333237:-2:-5:-8:-3:-2:-1:-2:-3:-0.66748:-0.730957:0.209473:-23.9375:-54.3125:43.625
1562062771386242:3:3:5:-4:16:8:1:-2:-0.709473:-0.666016:0.216797:-26.4375:-54.1875:32.25
1562062771434247:-1:-2:2:18:7:3:-2:-2:-0.716309:-0.669434:0.253906:-26.4375:-50.625:27.0625
1562062771483252:1:2:6:-1:-10:-3:0:0:-0.710449:-0.649902:0.292969:-17.1875:-35.9375:13.6875
1562062771536257:-2:2:5:-3:3:-1:-12:-7:-0.710449:-0.65918:0.28418:-15:-26.25:6.625
1562062771589263:-4:-6:-19:-4:-4:-5:-2:-1:-0.694336:-0.688965:0.28418:-3.0625:-12.75:-1.3125
1562062771634267:0:-2:1:-2:-5:-1:-2:1:-0.692383:-0.690918:0.27002:-6.25:-7.6875:-8.125
1562062771694273:0:-1:-9:3:-1:-1:-2:-2:-0.687012:-0.695801:0.251953:-6.0625:-4.625:-11.8125
1562062771734277:-1:-1:-1:-2:-8:-4:3:2:-0.700684:-0.714355:0.24707:-6.4375:-6.75:-11.6875
1562062771794283:1:-1:-7:-6:0:1:4:-10:-0.714844:-0.69873:0.224121:-4.6875:-6.8125:-12.0625
1562062771836287:-2:-4:-3:4:-3:1:3:2:-0.697266:-0.704102:0.250977:-4.9375:-12.375:-15.5
1562062771896293:0:1:3:-5:0:0:4:7:-0.681641:-0.719238:0.269043:-6.875:-14.125:-15.375
1562062771934297:0:2:3:-4:-1:0:-2:0:-0.665527:-0.678223:0.235352:-16.5:-11.375:-10.625
1562062771993303:-1:-5:-8:-1:3:0:2:3:-0.594238:-0.70752:0.203125:-33.4375:0.3125:-0.8125
1562062772049309:2:2:5:2:-2:-1:-2:1:-0.577148:-0.714355:0.137695:-36.5625:11.875:0.9375
1562062772093313:2:3:0:-8:-4:-1:1:7:-0.557129:-0.694824:0.0820312:-51.9375:27.375:7
1562062772151319:1:0:-5:-5:2:1:-3:-1:-0.605957:-0.747559:0.0332031:-67:52.5:17.875
1562062772197323:1:1:2:-19:-7:1:18:0:-0.648926:-0.766602:-0.00292969:-75.4375:66.625:29.375
1562062772251329:0:0:1:6:-1:0:-3:-1:-0.688477:-0.786133:-0.0405273:-77.8125:70.3125:35.125
1562062772296333:-2:2:4:4:1:-5:-8:4:-0.738281:-0.80957:-0.0888672:-71.375:72.875:42.125
1562062772337337:0:-3:-6:0:-3:-6:-5:0:-0.768066:-0.822754:-0.140625:-55.0625:72.4375:55.375
1562062772398343:0:0:2:3:-1:-3:5:6:-0.790039:-0.755859:-0.206055:-36.3125:70:65
1562062772451349:-4:-5:-6:-2:-4:-4:2:-1:-0.816895:-0.700684:-0.291016:-32.5625:64.625:79.8125
1562062772496353:-1:-2:-1:-6:-3:-2:-4:1:-0.839355:-0.538574:-0.349121:-12.0625:66.125:95.0625
1562062772556359:1:2:2:2:-1:4:17:15:-0.868164:-0.45752:-0.401367:-7.75:65.375:104.188
1562062772615365:2:2:7:1:-18:-3:2:1:-0.875488:-0.421875:-0.213379:-3.4375:63.3125:113.625
1562062772656369:4:0:23:11:10:8:16:8:-0.52002:-0.196289:-0.662598:6.3125:40.8125:112.625
1562062772716375:-1:2:3:-2:5:0:4:5:-0.831055:-0.188477:-0.585449:5.75:31.0625:88.375
1562062772758379:0:0:2:0:-15:-3:-4:-3:-0.805176:-0.155273:-0.61084:-0.375:19.875:72.625
1562062772811385:-2:3:-7:-11:-2:-2:-1:-6:-0.760254:-0.104004:-0.612793:6.5:13.5:47.0625
1562062772856389:-1:0:0:-7:-3:-1:-6:-7:-0.804688:-0.0415039:-0.636719:8.625:11.4375:29.1875
1562062772916395:1:-1:1:10:2:-3:-12:-4:-0.809082:-0.0551758:-0.634277:1.625:9.5:18.875
1562062772956399:-2:-2:-2:3:15:1:3:0:-0.82666:-0.0556641:-0.631836:6.625:11:10.1875
1562062773016405:-2:0:8:-4:-5:-2:8:0:-0.816406:-0.0444336:-0.668457:-1.3125:4.125:-2.3125
1562062773058409:0:0:-8:5:0:1:-6:-3:-0.846191:-0.00976562:-0.669922:3.5625:-2.8125:-12.75
1562062773118415:1:-1:-7:1:2:0:11:9:-0.855957:-0.0258789:-0.666992:-4.3125:-12.625:-21.0625
1562062773155419:-2:-1:2:6:3:0:-5:-10:-0.858398:-0.0839844:-0.617676:-11.5625:-29.5625:-34.375
1562062773216425:-1:0:-9:-5:2:-1:0:5:-0.900879:-0.126465:-0.58252:-1.6875:-34.5:-40.3125
1562062773256429:0:0:-4:1:-3:-2:0:2:-0.91748:-0.162109:-0.54541:-5.0625:-57.875:-53.4375
1562062773316435:-1:-1:6:2:-1:-1:1:7:-0.924316:-0.185059:-0.503906:8.3125:-65:-56.0625
1562062773359440:-3:-3:-3:-4:0:-2:1:-8:-0.959961:-0.185059:-0.492676:-1.6875:-74.125:-63.625
1562062773421446:0:0:-2:-6:-4:-1:7:8:-0.927734:-0.319336:-0.410645:6.1875:-75.375:-65.4375
1562062773456449:0:-1:2:5:1:-2:1:-1:-0.935059:-0.332031:-0.319824:26.4375:-74.625:-70.875
1562062773519456:-4:-8:-16:-3:1:0:4:6:-0.92627:-0.450684:-0.256836:34.5625:-86.1875:-79.625
1562062773561460:-2:-5:-17:-9:-2:-2:-6:3:-0.915527:-0.475098:-0.207031:35:-89.5:-74.25
1562062773621466:-2:-2:-6:2:4:-1:-9:1:-0.884277:-0.55127:-0.133301:37.875:-92.8125:-72
1562062773673471:-3:-4:1:-9:-9:-3:0:3:-0.820801:-0.648926:-0.0356445:38:-94.625:-64.875
1562062773718475:-2:-9:-19:-2:-2:-4:-9:4:-0.763672:-0.641113:0.081543:50.75:-93.875:-61.4375
1562062773771481:2:-2:4:12:4:3:9:7:-0.69873:-0.691895:0.135742:46.125:-90.75:-55.1875
1562062773818485:3:5:-7:5:0:-1:9:14:-0.634277:-0.705566:0.251465:46.8125:-83.9375:-45.625
1562062773879492:2:-1:-4:-2:2:2:4:6:-0.583984:-0.689453:0.308594:51.125:-73.75:-36.625
1562062773920496:-1:-1:-1:4:-2:-1:4:-2:-0.566895:-0.682129:0.382324:52.8125:-66.9375:-31.75
1562062773973501:-2:-4:-5:-8:-9:-1:-1:2:-0.526367:-0.683105:0.442871:38:-60:-27.9375
1562062774018505:0:0:-1:-2:2:5:25:5:-0.504883:-0.649902:0.499512:31.9375:-51.3125:-23.375
1562062774078511:-2:-2:2:-4:-2:-1:-7:-5:-0.478027:-0.692871:0.536621:33.0625:-47.875:-22.1875
1562062774119516:3:9:20:6:6:4:-1:2:-0.464355:-0.663574:0.586426:29.3125:-43.875:-20.8125
1562062774179522:-3:-3:-11:-7:-9:-5:-6:-9:-0.419922:-0.691895:0.625977:30.1875:-43.4375:-22.625
1562062774221526:-1:-2:-12:-1:-10:-5:-7:-2:-0.380859:-0.657227:0.648926:27.8125:-44.3125:-25.9375
1562062774281532:-2:0:9:4:-6:-1:7:8:-0.313965:-0.651367:0.65625:27.25:-42.5:-23.375
1562062774333537:0:-6:-16:6:2:3:1:-4:-0.27832:-0.598145:0.666016:20.1875:-28.6875:-15.4375
1562062774378541:-1:1:5:0:4:0:-9:-2:-0.26123:-0.609375:0.681152:8.625:-18.9375:-9.8125
1562062774434547:1:9:30:4:-2:1:3:-1:-0.269531:-0.621582:0.703613:5.75:-4.25:-1.625
1562062774484552:2:6:11:1:-7:0:-5:0:-0.258789:-0.610352:0.657227:-10.3125:9.8125:7.9375
1562062774535557:2:1:9:0:4:2:1:2:-0.255371:-0.568359:0.649902:-15.1875:18.1875:14.25
1562062774581562:-1:-2:-2:2:1:-3:-7:-2:-0.282715:-0.596191:0.619629:-32:28.0625:21
1562062774633567:0:-1:-4:-7:-2:-1:1:3:-0.33252:-0.57959:0.554199:-47.5:44.125:28.5625
1562062774681572:0:-2:-10:-5:3:1:3:-5:-0.382324:-0.705078:0.604004:-50.8125:51.5625:33.3125
1562062774723576:2:2:6:5:5:4:-9:-5:-0.44043:-0.674316:0.538086:-60.125:68.8125:37.8125
1562062774783582:-2:-3:-5:3:-3:-5:-10:-2:-0.502441:-0.728516:0.497559:-57.5:71.75:37.8125
1562062774835587:-1:-2:-7:-3:-2:-2:-6:-3:-0.587402:-0.766113:0.426758:-60.3125:72.875:38.9375
1562062774880592:-1:0:2:1:-3:0:1:3:-0.61084:-0.75:0.354004:-55.6875:71.9375:36.25
1562062774933597:-1:-4:-6:-2:-3:-3:10:-7:-0.654785:-0.709961:0.226562:-52.625:75.8125:38.5
1562062774981602:-1:1:4:1:-6:0:-12:-16:-0.750977:-0.72168:0.170898:-53.375:72.9375:40
1562062775023606:-1:-1:3:-6:-3:-4:-2:-6:-0.749023:-0.717773:0.145996:-51.125:73.875:41.6875
1562062775083612:-1:0:2:-3:6:5:-4:-2:-0.804199:-0.682617:0.0541992:-50.6875:69.3125:40.625
1562062775136617:-1:0:-1:-1:1:-1:3:2:-0.833496:-0.680664:-0.0146484:-34.375:64.75:39.625
1562062775180622:1:-2:-4:0:-4:-2:-12:0:-0.774414:-0.637207:-0.0454102:-35.125:65.625:43.5625
1562062775241628:-4:-1:-1:-4:-1:1:-4:-21:-0.785645:-0.527344:-0.334473:-31.375:49.5625:40.125
1562062775293633:-1:-2:-1:-4:-1:1:14:4:-0.716797:-0.526367:-0.266113:-17.75:43:41.3125
1562062775338637:1:-1:0:3:-5:-3:-9:-1:-0.941406:-0.573242:-0.17334:-15.6875:38.5:29.5625
1562062775398643:0:-1:-3:-3:0:-2:-4:3:-0.944824:-0.55127:-0.207031:-2.1875:16.9375:15.75
1562062775446648:0:1:-2:-4:0:0:7:-9:-0.94043:-0.519043:-0.242188:3.6875:3.8125:8.375
1562062775496653:-1:-3:-3:6:-3:-3:3:-4:-0.914551:-0.489746:-0.253906:8.625:-12.0625:-4.5
1562062775543658:0:-4:-6:-9:-7:-3:-4:-1:-0.908203:-0.485352:-0.257812:12.125:-17.6875:-12.4375
1562062775586662:0:1:2:6:-8:0:10:12:-0.874023:-0.480469:-0.246094:7.1875:-23.0625:-21.375
1562062775646668:-1:1:5:9:6:0:-8:-19:-0.850098:-0.522949:-0.214844:10.4375:-25.5625:-26.375
1562062775683672:0:0:2:-7:-3:0:1:-1:-0.834473:-0.568848:-0.179688:6:-28.4375:-30.3125
1562062775743678:-2:-1:-2:4:3:1:0:3:-0.841309:-0.594727:-0.166992:11.125:-27.375:-32
1562062775795683:1:4:3:-1:-8:2:22:-4:-0.831543:-0.603516:-0.134766:9.6875:-27.125:-28.0625
1562062775844688:-2:0:1:-5:-2:-2:-3:-1:-0.811035:-0.634766:-0.109863:8.5625:-28.6875:-26.5
1562062775886692:-2:-1:-4:-2:1:3:19:2:-0.807617:-0.681152:-0.0424805:9.6875:-33.375:-25.625
1562062775947698:-1:-3:-7:-4:0:-4:-7:6:-0.780273:-0.735352:0.0249023:22.3125:-46.3125:-35.3125
1562062775999704:1:1:0:-4:1:-2:-3:1:-0.791016:-0.745117:0.0522461:28.3125:-56.3125:-42.8125
1562062776043708:1:2:5:10:2:1:15:2:-0.720703:-0.749512:0.0864258:43.6875:-65.0625:-53.5625
1562062776095713:-1:0:3:-3:-2:-2:-2:4:-0.705566:-0.790527:0.147461:42.125:-67:-55.25
1562062776144718:-2:-3:-7:-4:0:-2:2:5:-0.61084:-0.790527:0.205566:51.75:-66.875:-50.6875
1562062776201724:2:-1:-7:0:0:-1:1:-1:-0.577637:-0.770996:0.240234:44.375:-64.875:-47.5625
1562062776245728:0:0:9:12:0:-2:-2:1:-0.51416:-0.810059:0.291016:42.8125:-60.5625:-41.3125
1562062776298733:0:1:-4:-2:-3:-1:3:10:-0.433105:-0.794922:0.378418:41.375:-56:-35.5625
1562062776343738:0:0:4:-5:-4:1:3:2:-0.451172:-0.811035:0.397461:42.1875:-52.25:-36.25
1562062776404744:-2:1:-3:2:-2:-2:-5:-2:-0.389648:-0.766602:0.433105:35:-50.3125:-33.4375
1562062776448748:-3:-7:-25:-4:-7:-3:-4:-10:-0.339355:-0.768555:0.504883:31.875:-46:-33.1875
1562062776500754:-1:1:6:3:1:0:-7:-1:-0.296387:-0.769531:0.538086:30.6875:-41:-30.3125
1562062776545758:0:-4:-11:-12:-6:-5:1:-1:-0.28418:-0.748535:0.538086:26:-36.625:-30.75
1562062776606764:1:2:9:-2:0:0:1:3:-0.249023:-0.721191:0.546387:24.8125:-33.5:-29.5625
1562062776646768:-2:-3:-5:0:1:3:4:3:-0.188477:-0.687012:0.532715:5.1875:-25.125:-27.25
1562062776706774:-1:-1:0:7:2:2:-5:-4:-0.164062:-0.707031:0.53418:0.125:-11.1875:-20
1562062776749779:1:1:1:-2:-5:-2:-6:3:-0.140137:-0.702637:0.556152:-19.25:4.875:-9.625
1562062776809785:-3:-3:0:0:5:-1:2:2:-0.159668:-0.799316:0.574219:-24:16.9375:-1.625
1562062776845788:0:-2:-1:-2:-3:-2:7:9:-0.189453:-0.818359:0.590332:-30.0625:24.6875:6.125
1562062776905794:-2:-2:-4:-4:0:2:-4:-4:-0.203125:-0.844727:0.562988:-23.8125:27.0625:8.4375
1562062776946798:1:-1:3:-3:4:1:-2:1:-0.24707:-0.846191:0.543457:-23.875:23.6875:8.5625
1562062777006804:-1:4:3:9:1:2:0:-4:-0.245117:-0.859375:0.543457:-23.125:20.6875:6.375
1562062777049809:0:-1:-1:5:2:-1:2:-1:-0.255371:-0.861328:0.516113:-20.5625:14.125:3.0625
1562062777085812:-2:-2:-1:1:-3:-1:-2:2:-0.387695:-1.11377:0.539551:5.25:0.75:-7.4375
1562062777145818:0:-1:0:0:-2:1:-2:-3:-0.269531:-0.872559:0.439941:-9.625:-5.3125:-0.875
1562062777206824:0:-2:-3:-4:-3:-1:-5:-4:-0.286621:-0.851562:0.489746:3.125:-2.4375:-0.625
1562062777258829:0:-2:0:1:0:-2:1:0:-0.227051:-0.86377:0.495117:0.875:-2.5625:2.375
1562062777302834:0:-4:-5:-3:1:1:3:7:-0.21875:-0.853027:0.492188:-5.6875:-0.1875:0.4375
1562062777356839:0:-1:3:1:2:-1:0:-1:-0.231445:-0.857422:0.493164:1.5:2.9375:0.4375
1562062777409845:0:-1:-3:-3:-1:-2:-5:-1:-0.241699:-0.842773:0.486816:-0.9375:1.25:-0.625
1562062777461850:-3:-2:-1:3:0:-1:-3:1:-0.249023:-0.857422:0.499023:0.3125:-0.5625:0.4375
1562062777508854:0:0:0:2:-2:2:-2:0:-0.261719:-0.833984:0.493652:-0.75:-2.0625:1.125
1562062777551859:0:0:2:-6:-2:0:-2:-4:-0.242676:-0.854004:0.502441:-2:-1.6875:3.1875
1562062777611865:0:1:0:1:-3:1:4:8:-0.248535:-0.839355:0.500977:-1.1875:-1.0625:3.8125
1562062777649869:0:0:3:3:4:1:0:0:-0.254395:-0.845703:0.494629:-1.375:-1.1875:3.1875
1562062777709875:-2:0:0:3:4:-1:-2:-6:-0.260254:-0.830566:0.506348:-0.5625:-1.25:2.3125
1562062777761880:1:0:1:0:2:1:1:-3:-0.259766:-0.839844:0.494629:-0.625:-1.125:1.375
1562062777808884:0:0:-3:-6:-7:-3:-5:-2:-0.260254:-0.83252:0.494141:-0.5625:-1.5:1.25
1562062777851889:1:-1:-1:0:5:1:-1:-2:-0.25293:-0.851074:0.494141:-2.25:-2.25:1.1875
1562062777911895:0:3:12:1:1:0:0:2:-0.262207:-0.848145:0.487793:-1:-1.4375:2
1562062777962900:-1:-3:-5:0:2:0:-1:-2:-0.256836:-0.84668:0.49707:-0.5625:-1.625:3.5
1562062778009905:-2:-2:-2:3:-6:-3:1:3:-0.263184:-0.846191:0.495117:-1:-2.4375:4.625
1562062778060910:-1:1:3:0:-2:-2:2:0:-0.26709:-0.84375:0.499023:-0.6875:-2.875:4.5
1562062778113915:0:-1:-2:-2:-3:0:-2:-5:-0.264648:-0.84082:0.495605:-1.4375:-2.625:4.5
1562062778151919:0:0:1:3:-8:0:2:2:-0.270996:-0.837891:0.493652:1.375:-1.3125:4.25
1562062778203924:-1:-2:-4:-5:2:0:0:-2:-0.269531:-0.833984:0.494141:0.8125:-1.0625:2.9375
1562062778263930:-3:-2:2:-1:0:-3:-1:-1:-0.260254:-0.837891:0.502441:-1.1875:-1:0.75
1562062778312935:0:1:-1:2:-5:-4:0:-1:-0.275391:-0.831543:0.493652:-0.3125:-0.5625:-0.875
1562062778356939:1:1:-1:0:0:0:-1:-1:-0.268066:-0.839844:0.49707:-1.6875:-0.75:-0.9375
1562062778415945:-1:-3:0:3:3:0:0:0:-0.269043:-0.833008:0.497559:1.3125:0:-1.125
1562062778465950:0:0:-1:-1:-7:3:1:0:-0.27002:-0.843262:0.497559:-0.25:-0.625:-1.1875
1562062778513955:-1:-2:-5:-2:0:0:2:0:-0.271484:-0.830566:0.489746:-0.375:-0.375:-1.625
1562062778562960:0:-1:-3:0:-5:-4:-2:-3:-0.264648:-0.845215:0.497559:-1.375:-0.5625:-1.0625
1562062778619966:-3:-4:-9:-3:3:-2:-5:-3:-0.265625:-0.835938:0.500488:-0.3125:-0.5:-0.6875
1562062778667970:0:1:2:-5:-1:0:-1:-1:-0.268066:-0.839355:0.494141:-1.5625:-0.9375:-0.375
1562062778716975:-3:-4:-2:7:2:1:1:-3:-0.254395:-0.841797:0.494141:-0.375:0:-0.8125
1562062778765980:-1:1:4:1:3:2:2:0:-0.265625:-0.835449:0.498535:-0.75:-0.25:-0.875
1562062778813985:-1:-2:-7:-11:-6:0:1:1:-0.263672:-0.837891:0.495605:-0.625:-0.375:-0.375
1562062778863990:0:-1:3:-4:-1:-1:-2:1:-0.260254:-0.845703:0.487305:-0.125:0.3125:-0.125
1562062778919996:0:2:5:2:0:-1:3:3:-0.268555:-0.836914:0.496582:0.0625:-0.1875:-0.0625
1562062778968000:0:0:-2:-2:-3:-2:-1:0:-0.265625:-0.838867:0.496582:-1:-0.875:-0.0625
1562062779007004:-1:-4:-7:-3:2:0:0:0:-0.26123:-0.842285:0.492676:0:-0.6875:-0.0625
1562062779066010:3:1:-1:-7:1:0:0:-1:-0.26123:-0.842285:0.498047:-1.1875:-0.3125:-0.375
1562062779126016:0:-1:-1:-5:-1:0:1:2:-0.260742:-0.844238:0.491211:-1.6875:-0.4375:-0.0625
1562062779174021:-1:-2:-4:-5:-2:1:3:5:-0.260742:-0.835938:0.499023:0.125:0:-0.375
1562062779219025:0:1:3:-5:-1:2:-2:-2:-0.264648:-0.839844:0.495117:-0.25:-0.25:-0.3125
1562062779269030:0:-2:-2:-5:-1:0:-2:-1:-0.261719:-0.842773:0.496582:0.75:0.25:-0.75
1562062779316035:1:0:1:-3:0:0:0:-2:-0.260254:-0.839844:0.489746:0.5:0.75:-1.25
1562062779377041:0:1:2:-8:1:3:-2:-2:-0.262207:-0.836914:0.49707:0.8125:1.25:-3.125
1562062779426046:-2:-3:-2:-2:0:0:1:0:-0.26123:-0.823242:0.495117:0.6875:1.125:-4.75
1562062779478051:1:2:4:1:1:-2:-1:0:-0.249023:-0.831055:0.49707:-1.1875:2.1875:-8.25
1562062779520056:-2:-1:-2:-2:-3:-1:0:0:-0.249512:-0.830078:0.505371:-1.1875:2.5625:-12.3125
1562062779580062:-2:1:5:3:0:0:-4:-9:-0.243652:-0.827148:0.505859:-0.6875:7.8125:-19.375
1562062779629066:-2:-3:-6:-1:3:1:1:4:-0.226074:-0.833496:0.496094:1:10.5625:-24.3125
1562062779678071:-1:0:0:-1:-2:0:-2:-2:-0.22168:-0.836914:0.492188:-3.25:12.1875:-33.3125
1562062779726076:1:0:-2:1:0:3:3:5:-0.201172:-0.854004:0.482422:-1.6875:12.6875:-37.375
1562062779777081:1:2:3:5:4:0:-2:-1:-0.154785:-0.864258:0.478027:0.875:13.0625:-43.1875
1562062779832087:1:0:3:9:3:-3:1:1:-0.140625:-0.881836:0.483398:4.25:12:-45.0625
1562062779883092:-3:-2:2:1:-2:-1:-1:-1:-0.105957:-0.891113:0.475586:1.0625:9.1875:-45.0625
1562062779929096:0:5:8:-5:3:2:-2:-3:-0.0800781:-0.902344:0.472656:5.6875:6.4375:-40.75
1562062779977101:1:-3:-2:-2:-2:1:2:0:-0.0454102:-0.888672:0.480469:1.6875:3.4375:-33.1875
1562062780026106:-1:-1:-3:-9:-1:1:0:-1:-0.0141602:-0.900391:0.490234:3.25:3:-24.9375
1562062780078111:-2:0:-1:4:1:0:-3:-3:-0.0146484:-0.897949:0.493164:0.3125:1.625:-18.9375
1562062780132117:-1:-2:-4:-2:0:-2:-4:-1:0:-0.880859:0.495605:3.4375:1.6875:-12.75
1562062780180122:2:1:6:0:2:3:6:3:0.0078125:-0.879883:0.49707:0.9375:1.25:-10.5
1562062780229126:-3:-6:-13:-7:-6:-6:-4:-2:0.00683594:-0.864258:0.495117:3.6875:2:-11.5625
1562062780279131:-3:-2:-3:-5:-4:-1:-2:-2:0.0136719:-0.859375:0.501465:3.9375:2.625:-14.75
1562062780335137:0:-1:6:3:3:1:3:4:0.0302734:-0.868652:0.507324:3.9375:2.3125:-18.5625
1562062780379141:-2:1:2:-1:4:2:-1:-13:0.0449219:-0.868164:0.511719:4.375:1.75:-19.3125
1562062780420146:1:1:-4:-4:0:-1:-1:1:0.0600586:-0.867188:0.509766:-0.5625:0.6875:-18.8125
1562062780479151:-2:-5:-8:-7:2:0:0:4:0.0678711:-0.867188:0.512207:3.75:0.8125:-16.4375
1562062780529156:1:2:3:3:-2:0:1:0:0.0839844:-0.859863:0.513672:2:0.375:-15.75
1562062780581162:-2:0:0:-3:-6:-2:-5:-11:0.097168:-0.856934:0.522461:4.125:1.625:-13.625
1562062780635167:0:1:1:11:2:1:2:1:0.0952148:-0.853027:0.518066:2.8125:1.25:-12.6875
1562062780679171:-1:-1:3:-6:-5:0:0:1:0.105469:-0.852051:0.514648:3.6875:0:-12.5
1562062780739177:0:-1:-4:-3:-4:-1:0:0:0.125:-0.861816:0.530762:1:-2.625:-9.0625
1562062780779181:0:2:2:5:-2:-1:-2:-5:0.126953:-0.865234:0.528809:2.75:-2.8125:-5.3125
1562062780839187:0:2:3:4:1:-4:-3:0:0.132324:-0.864746:0.538086:0.5:-1.25:1.6875
1562062780888192:-1:0:-2:-2:-2:0:-1:0:0.128906:-0.840332:0.538574:0.5:-0.1875:4.3125
1562062780941198:-2:-1:6:5:-1:2:0:-1:0.12207:-0.848633:0.526855:-2.5:0:5.5625
1562062780995203:0:-1:-2:0:-1:-2:-1:-3:0.121094:-0.849609:0.523926:-1.6875:0:5
1562062781041208:-2:-1:-3:3:1:1:1:-1:0.11377:-0.866699:0.521973:-1.8125:-1.625:8.9375
1562062781092213:1:-2:0:-6:0:2:-3:-1:0.110352:-0.862305:0.52832:-1.375:-0.4375:12.375
1562062781142218:-1:-2:-2:0:1:-4:-1:1:0.106445:-0.866699:0.527832:-4.8125:0.1875:20
1562062781181222:1:2:3:-3:-1:-1:1:3:0.0961914:-0.884277:0.524902:-4.8125:2.25:27.25
1562062781244228:-1:-1:3:-7:-2:0:-1:0:0.065918:-0.900879:0.524902:-7.3125:3.125:41.125
1562062781294233:0:-2:3:-8:-15:-3:-7:-3:0.0195312:-0.914062:0.496582:-16.1875:1.625:61.75
1562062781342238:0:0:0:9:2:-1:0:-1:-0.0283203:-0.900391:0.477051:-16.8125:0.625:73.3125
1562062781391243:0:-4:-6:-14:-8:-9:-2:-4:-0.074707:-0.922852:0.474609:-15.6875:-5.8125:83.6875
1562062781442248:-2:-2:-6:2:3:-1:-5:0:-0.197266:-0.879883:0.444824:-12.5:-14.25:93.9375
1562062781497253:-2:-1:0:7:-17:-6:0:-1:-0.219727:-0.85498:0.445801:-9.75:-18.3125:90.3125
1562062781541258:1:0:2:-7:0:2:-1:-1:-0.302734:-0.776855:0.458008:-0.5625:-23.875:79.9375
1562062781594263:0:-2:2:-8:-25:-9:-2:-3:-0.337402:-0.786133:0.469727:-2.5625:-29.75:59.875
1562062781642268:-1:-4:-6:-7:-19:-3:0:-2:-0.365234:-0.763184:0.481934:-1.625:-29.9375:47.375
1562062781692273:0:-2:-5:5:10:5:1:4:-0.372559:-0.754883:0.51123:2.75:-31.375:32.6875
1562062781751279:-1:-1:0:1:-1:0:1:2:-0.356934:-0.758789:0.534668:-9.875:-27.9375:24.0625
1562062781797283:0:0:5:12:11:-1:-1:-1:-0.35791:-0.756348:0.541016:3.125:-13.8125:14.1875
1562062781841288:0:-1:-1:2:1:3:6:1:-0.361816:-0.738281:0.550293:0.6875:-3.75:7.5625
1562062781901294:0:-2:-8:-8:-7:2:3:1:-0.37793:-0.76123:0.534668:3.8125:10.4375:-4.6875
1562062781942298:-1:0:-1:-5:-4:-4:-4:-4:-0.387207:-0.776367:0.509766:0.4375:11.625:-7.375
1562062782002304:-1:-3:-4:-2:-5:1:-2:1:-0.380371:-0.807129:0.508301:1.125:11.5:-4.6875
1562062782044308:-1:1:3:1:-1:-4:-2:2:-0.376953:-0.810059:0.501953:2.75:10.6875:0.125
1562062782103314:0:1:2:8:-8:-3:-8:0:-0.397949:-0.811035:0.476074:-0.25:5.25:8
1562062782141318:-2:0:4:18:7:-3:2:0:-0.422852:-0.805664:0.472168:5.375:-2.0625:13.625
1562062782201324:0:-1:1:5:0:0:-5:-12:-0.42041:-0.76709:0.484375:-7.75:-15.125:18.1875
1562062782254329:-2:0:4:3:-11:-3:-1:1:-0.413574:-0.770996:0.518555:-2.875:-15.9375:18
1562062782304334:0:0:0:6:7:-1:-2:4:-0.404297:-0.76709:0.533203:0.5:-11.3125:16.75
1562062782351339:0:1:2:-4:1:1:-11:-15:-0.410156:-0.735352:0.536133:2.875:-5.25:13.75
1562062782403344:1:-1:2:4:3:1:2:8:-0.422852:-0.747559:0.546387:3.25:0.1875:10.5
1562062782441348:0:0:-1:0:4:1:1:5:-0.440918:-0.737305:0.541992:4.0625:5.125:9.5
1562062782502354:0:0:4:-3:2:-1:-2:-1:-0.443848:-0.75293:0.530762:4.5625:10:11.8125
1562062782553359:-1:3:4:5:-8:-5:-1:-2:-0.460449:-0.740723:0.523926:8.5625:11.9375:12.5625
1562062782604364:-1:2:1:0:2:1:0:-3:-0.47998:-0.703613:0.518066:6.1875:10.75:8.75
1562062782644368:2:-1:-2:-4:-3:1:3:1:-0.481445:-0.701172:0.521973:4:8.6875:5.125
1562062782703374:-1:-1:0:-3:-3:0:-5:-8:-0.506348:-0.693848:0.518066:1:3.9375:-0.625
1562062782757379:-1:1:7:9:11:1:0:-2:-0.494629:-0.711426:0.532227:0.1875:1.4375:-2.0625
1562062782804384:0:-1:3:7:-1:-3:-6:1:-0.48291:-0.739746:0.527344:1.0625:2.25:0.75
1562062782854389:-1:-3:-6:7:5:2:-1:-5:-0.477051:-0.735352:0.535645:2.125:6.4375:4.5
1562062782914395:-1:0:2:-2:2:2:0:0:-0.483398:-0.727051:0.535156:9.25:15.375:11.1875
1562062782959399:0:0:0:1:2:-3:-2:-1:-0.508301:-0.703613:0.533203:12.125:22.9375:15.1875
1562062783003404:1:2:5:-7:-4:-1:3:0:-0.547852:-0.65918:0.522949:15.6875:25.375:14.75
1562062783056409:0:-1:-2:-5:-2:-6:-3:-2:-0.560059:-0.663086:0.520996:10.875:28.3125:13
1562062783107414:-1:1:1:-9:8:3:-1:-1:-0.563477:-0.672363:0.518555:13.5625:31.75:12.8125
1562062783145418:0:-1:-5:-4:-4:-3:-3:-1:-0.586426:-0.654297:0.500488:15.1875:36.125:13.9375
1562062783206424:0:-1:-3:-4:-2:0:1:2:-0.616699:-0.649902:0.486816:20.5:43.6875:17.75
1562062783259429:0:-1:-2:-1:-2:-1:-3:-3:-0.652344:-0.61377:0.469238:22.4375:51.5625:21.3125
1562062783307434:-1:2:1:0:-2:0:-5:-1:-0.67041:-0.605469:0.452637:24.25:56.25:23.25
1562062783356439:0:-1:-1:-14:-5:-4:-3:1:-0.709473:-0.568359:0.427246:30:60.375:23.6875
1562062783407444:-2:1:3:3:-1:0:1:0:-0.761719:-0.521484:0.406738:25.375:60.5625:23.4375
1562062783448448:2:2:3:2:5:3:4:1:-0.78418:-0.502441:0.367676:27.875:61:22.9375
1562062783506454:-1:-4:-7:-6:-5:-1:0:0:-0.84375:-0.481445:0.343262:25.0625:59.1875:22.75
1562062783566460:0:-2:-3:3:-1:-2:-1:0:-1.03857:-0.509277:0.200195:36.625:64.375:20.3125
1562062783607464:0:0:3:5:2:0:-1:0:-1.01953:-0.466309:0.362793:17.9375:62.75:20.5625
1562062783666470:-1:0:2:-5:3:2:2:1:-0.900391:-0.384277:0.220215:31.25:58.625:27.5
1562062783711475:1:1:2:4:1:3:2:3:-0.919922:-0.35498:0.1875:21.9375:54.9375:28
1562062783761480:-2:-3:-12:-13:-2:-1:0:0:-0.939941:-0.360352:0.15332:23.6875:52.625:29.4375
1562062783822486:-61:6:0:4:-6:-4:0:10:-0.962402:-0.290527:0.101562:17.5625:48.6875:28.4375
1562062783866490:7:0:-6:-10:3:-3:-6:-8:-0.9375:-0.275391:0.0839844:26.9375:47.5625:28.5625
1562062783909494:-3:-2:0:-3:0:1:2:1:-1.00732:-0.233398:0.00732422:9.4375:41.3125:23.75
1562062783965500:2:-1:-5:1:3:2:-2:-2:-0.993164:-0.224609:0.0146484:17:37.875:24.75
1562062784016505:-2:-1:-2:7:1:2:2:1:-0.998047:-0.213379:-0.00683594:11.5625:34.4375:20.3125
1562062784069510:0:1:2:-4:-2:-3:-1:0:-1.00781:-0.189941:-0.0522461:10.4375:29.625:15.5
1562062784122516:0:-2:-6:-5:-2:-1:-3:-1:-1.01172:-0.180664:-0.0722656:12.5:27.5:12.5625
1562062784170521:0:1:-2:-9:-2:1:0:0:-1.01416:-0.172852:-0.0947266:7.625:21.0625:8.625
1562062784218525:0:0:0:-5:0:0:2:1:-1.02197:-0.166992:-0.106445:4.25:15.1875:7.0625
1562062784248528:-1:-3:-3:-4:-10:-6:-2:-3:-1.02197:-0.155273:-0.126465:1.5:9.8125:3.75
1562062784308534:0:0:-5:-11:3:1:0:0:-1.02295:-0.164551:-0.121094:0.625:0.5625:-2.375
1562062784368540:-1:0:-2:-4:2:-3:0:0:-1.02002:-0.142578:-0.123047:-3.9375:-7.875:-7.9375
1562062784422546:0:0:1:-6:-2:0:0:1:-1.01953:-0.163574:-0.114258:-7.125:-11:-11.3125
1562062784469550:0:4:4:1:-1:0:1:-1:-1.01074:-0.194824:-0.0893555:-4.25:-12.25:-15.4375
1562062784519555:-1:-3:-4:-5:1:0:2:0:-1.00977:-0.19873:-0.0844727:-10.75:-17.375:-17.0625
1562062784564560:0:0:2:-4:-3:-1:-1:-1:-1.00146:-0.228516:-0.0605469:-10.5:-20.6875:-18.3125
1562062784608564:-2:0:2:1:1:2:0:0:-1.0127:-0.213379:-0.0649414:-9.8125:-25.5:-20.875
1562062784668570:-2:-1:1:-6:-4:0:1:-1:-1:-0.248047:-0.0317383:-16.0625:-33.125:-25.9375
1562062784722576:0:-2:-7:0:5:2:1:0:-0.995605:-0.262695:-0.0185547:-16.25:-42.875:-32.5625
1562062784769580:-1:-1:-2:3:1:0:1:0:-0.966797:-0.293945:0.0258789:-27.6875:-53.4375:-37.0625
1562062784820586:-1:-1:0:-4:1:-2:-1:-1:-0.953613:-0.318848:0.0541992:-16.375:-57.4375:-43.25
1562062784864590:-1:0:0:-1:-1:-2:-2:-2:-0.916504:-0.386719:0.117188:-27.5625:-62.25:-50.8125
1562062784924596:0:3:-1:-3:-4:2:-1:1:-0.880371:-0.4375:0.200195:-18:-60.0625:-54.25
1562062784968600:-3:-3:3:-1:-2:-1:0:-1:-0.839355:-0.486328:0.184082:-23.3125:-62.625:-56.5
1562062785029606:-1:0:0:1:2:-1:1:0:-0.794434:-0.55957:0.245605:-17.5:-65.75:-58.0625
1562062785072611:-2:-1:-4:3:-2:-4:-3:-2:-0.792969:-0.541016:0.259277:-16.625:-67.6875:-61.1875
1562062785129616:0:0:-3:1:-1:-1:0:0:-0.723633:-0.617676:0.308105:-17.25:-71.9375:-61.8125
1562062785170621:0:0:-4:3:-3:-2:-4:-2:-0.624512:-0.668457:0.308105:-22.1875:-71.375:-77
1562062785231627:-3:0:-6:-6:1:-1:-2:-5:-0.519531:-0.708496:0.420898:-25.9375:-68.625:-79.9375
1562062785271631:-3:-2:1:1:-1:-1:-9:-4:-0.510742:-0.771973:0.404785:-11.125:-64.0625:-75.1875
1562062785331637:-1:0:-1:-10:-2:1:6:4:-0.438965:-0.816406:0.420898:-8.3125:-61.5625:-67.75
1562062785373641:0:0:3:1:1:-2:15:10:-0.316895:-0.847656:0.445312:0.25:-59.8125:-57.875
1562062785434647:2:1:1:-1:-6:1:-8:-16:-0.273438:-0.875488:0.457031:-1.625:-56.5625:-53.875
1562062785470651:1:1:2:-5:-3:-2:-9:1:-0.196289:-0.887207:0.499023:2.4375:-46.1875:-44.75
1562062785531657:0:0:2:1:1:-1:-2:-3:-0.183105:-0.876953:0.506836:12.5:-29.1875:-36.5
1562062785590663:-1:-1:-1:4:1:-1:-20:-10:-0.150391:-0.833984:0.525391:0.25:-26.25:-34.75
1562062785632667:-3:-1:-3:-1:3:0:-3:-2:-0.0898438:-0.916992:0.512695:0.8125:-17.6875:-30.5
1562062785689672:-1:-1:-1:-3:-2:-1:1:1:-0.0439453:-0.844238:0.538086:0.125:-11.875:-28.3125
1562062785733677:-1:-1:0:1:1:-1:0:0:-0.0205078:-0.935059:0.516602:-0.75:-4.5625:-23.8125
1562062785793683:0:0:2:-4:0:-2:-6:-2:-0.0551758:-0.866211:0.53418:-0.8125:0.25:-16.125
1562062785830687:-1:-1:2:0:-5:-1:-2:-4:-0.0595703:-0.891113:0.516113:3.8125:4.4375:-5
1562062785891693:2:0:0:-1:-3:0:4:-1:-0.0517578:-0.873535:0.510254:-3.125:2.9375:0.75
1562062785931697:0:-1:-8:-7:0:-1:4:-1:-0.0571289:-0.882812:0.503906:1.5:3.3125:2.6875
1562062785991703:1:0:1:-3:-2:-3:0:-2:-0.059082:-0.867676:0.509277:-1.375:0.625:2.9375
1562062786034707:-1:0:0:-2:1:2:2:3:-0.0634766:-0.871582:0.512695:-2.5625:0.6875:3.0625
1562062786093713:-2:0:-1:-1:-5:0:-2:-8:-0.0668945:-0.881348:0.508789:-6.75:0.0625:6
1562062786130717:-1:-2:3:1:-2:0:2:-1:-0.0693359:-0.885742:0.510254:-0.5:4.75:10.9375
1562062786190723:0:0:-2:-4:0:2:-2:0:-0.0722656:-0.878418:0.528809:-6.0625:7.25:16.0625
1562062786231727:1:2:3:1:1:-2:3:0:-0.0864258:-0.890137:0.530762:-3.375:18.875:24.25
1562062786292733:-3:-5:-6:1:-4:-4:-3:-3:-0.0952148:-0.888672:0.524902:-5.375:28.1875:30.5
1562062786334737:0:1:3:0:2:0:-1:-1:-0.133301:-0.899902:0.521484:-4.75:44:40.75
1562062786393743:1:-1:-1:-13:0:-3:-2:1:-0.176758:-0.881348:0.506836:-3.4375:52.4375:49.5
1562062786446748:-2:-3:-6:-3:-3:-3:-3:-3:-0.259766:-0.880859:0.47998:0.3125:66.9375:59.9375
1562062786491753:0:0:0:-1:-5:-4:-5:-2:-0.365723:-0.838379:0.430664:-3.5:77.8125:69.875
1562062786551759:1:0:-3:-8:-1:3:1:2:-0.423828:-0.819824:0.397949:3.5625:87.25:75.375
1562062786596763:0:-1:1:1:1:0:1:1:-0.492188:-0.758301:0.344727:10:94.0625:75.1875
1562062786648768:-1:-3:-2:8:0:-1:-2:-1:-0.58252:-0.722656:0.307129:8.875:94.0625:72
1562062786693773:-1:0:1:6:-2:-1:-2:-2:-0.657715:-0.674805:0.274902:19.5:94.9375:68.0625
1562062786745778:0:1:1:-1:0:3:-1:0:-0.754883:-0.614746:0.197754:12.5:84.5:63.5625
1562062786796783:0:-1:-3:-8:-4:-1:-1:-1:-0.788574:-0.580566:0.158691:16.0625:77.25:60.5
1562062786851789:-3:-3:-3:-8:1:-3:-1:-1:-0.86377:-0.520508:0.0839844:17.4375:66.75:54.5
1562062786896793:-1:-2:0:4:3:0:0:-2:-1.06445:-0.491211:0.0864258:17.4375:64.625:41.5
1562062786948798:0:0:-2:6:1:2:1:0:-1.02539:-0.509766:0.26416:8.6875:51.375:39.75
1562062786993803:-1:-2:-2:-5:8:0:-2:-3:-0.95166:-0.400879:0.00390625:10.125:36.625:31.0625
1562062787053809:1:1:-1:-8:0:-1:1:0:-0.95459:-0.384766:-0.00878906:4.875:30.3125:25.875
1562062787098813:0:-1:1:-1:3:1:-1:-2:-0.958008:-0.366211:-0.0229492:5.8125:22.5625:19.8125
1562062787153819:-1:0:2:7:3:3:0:0:-0.967285:-0.381836:-0.0366211:0.9375:13.5625:9.5
1562062787195823:-2:-2:-5:-3:-3:-3:0:-2:-0.960938:-0.365723:-0.0463867:-4.375:0.75:2.5
1562062787255829:0:0:2:1:-7:-2:0:1:-0.967773:-0.388184:-0.0351562:0.9375:-1.4375:-0.5625
1562062787294833:0:-1:-2:-11:-6:-2:-2:-1:-0.949707:-0.378418:-0.0253906:-8.75:-11.625:-3.625
1562062787354839:1:-2:-3:-1:2:2:0:0:-0.949707:-0.401855:-0.015625:-1.5:-11.0625:-4.5
1562062787393843:-1:0:-1:-1:-1:-2:1:-1:-0.957031:-0.374512:-0.0126953:-6.9375:-17.75:-7.5625
1562062787454849:-1:0:-3:6:-4:-1:-1:0:-0.94873:-0.393066:-0.00878906:-9:-23.3125:-11.625
1562062787496853:-3:-1:-1:-3:-3:-2:-3:-3:-0.963867:-0.375:0.015625:-8.625:-33.4375:-19
1562062787556859:-1:-4:-4:0:-5:-3:-3:-4:-0.941895:-0.394043:0.0107422:-18.0625:-45.125:-26.0625
1562062787609864:0:1:3:0:1:-1:-1:0:-0.917969:-0.42627:0.0698242:-11.3125:-55.375:-37.4375
1562062787653869:0:0:-1:0:-1:-2:-1:-3:-0.885742:-0.467285:0.100586:-14.5625:-63:-46.3125
1562062787698873:0:2:2:-1:2:-1:1:1:-0.846191:-0.5:0.166504:-11.75:-73.4375:-55.8125
1562062787758879:-1:2:1:1:-2:1:-2:0:-0.779785:-0.567871:0.20166:-9.4375:-76.6875:-63.75
1562062787810885:0:-1:-1:0:1:2:2:0:-0.729004:-0.577637:0.262695:-0.25:-82.125:-74.3125
1562062787856889:1:-1:3:2:-1:0:-1:-2:-0.660645:-0.655762:0.288574:1.6875:-81.9375:-82.375
1562062787908894:0:1:2:1:0:2:0:-1:-0.571777:-0.626953:0.379395:16.0625:-93.125:-96.5
1562062787957899:-2:-2:-2:-2:-6:-6:-4:-2:-0.410156:-0.815918:0.425293:3.25:-86.6875:-102.125
1562062787999903:-1:-1:0:-3:1:2:0:1:-0.321777:-0.769043:0.446289:17.3125:-84.8125:-102.125
1562062788059909:0:2:4:1:-5:-2:0:0:-0.192871:-0.872559:0.55127:11.375:-67.9375:-95.8125
1562062788111915:1:0:-1:-1:2:-2:-2:-2:-0.141113:-0.824707:0.557129:20.75:-66.625:-86.8125
1562062788155919:-1:-1:-1:-3:-10:0:-1:-1:-0.0341797:-0.876953:0.593262:14.375:-61.75:-74.4375
1562062788215925:0:-1:-1:0:0:-2:-3:0:0.0644531:-0.873535:0.60791:15:-39.0625:-53.25
1562062788256929:-1:1:2:0:1:-1:1:2:0.0874023:-0.846191:0.60791:13:-19.375:-34.125
1562062788317935:-1:1:3:4:0:1:-3:-5:0.0878906:-0.820312:0.625:8.25:-9.25:-22.5625
1562062788359939:-1:-1:3:3:0:-3:-4:-3:0.101562:-0.837891:0.616699:-1.3125:-1.9375:-14.4375
1562062788418945:-1:-4:-2:0:2:-1:3:-1:0.0957031:-0.82959:0.605469:-3.5625:4.25:-3.9375
1562062788470951:1:-2:-1:-2:-1:0:1:0:0.074707:-0.817383:0.577637:-1.75:9.8125:2.9375
1562062788516955:0:-1:0:0:-1:-2:-3:-2:0.0517578:-0.791992:0.508789:-4.75:6.0625:2.125
1562062788568960:-1:-1:-5:-3:-6:-2:-2:-1:0.0258789:-0.834473:0.569336:-2.25:4.3125:-0.75
1562062788613965:-1:-1:-1:-2:2:2:-1:-2:0.0214844:-0.826172:0.566895:-2.875:2.125:-1.0625
1562062788673971:-1:1:1:0:1:-2:-1:-1:0.0483398:-0.838379:0.574707:-3.4375:2.625:-0.375
1562062788719975:-2:-2:-3:-3:-1:-1:0:0:0.0605469:-0.820312:0.575684:-2.1875:3.5625:1.1875
1562062788771981:-2:-1:0:0:-1:-2:-2:-1:0.0566406:-0.824219:0.569824:-2.9375:2.875:1.25
1562062788818985:-1:0:-2:-2:1:-1:-1:1:0.0463867:-0.824707:0.555176:-2.375:2.125:0.125
1562062788862990:0:-3:-2:-1:-1:-2:0:-1:0.0463867:-0.821289:0.562012:-1.1875:-0.5625:-2.625
1562062788921996:-2:-2:-5:-2:-2:-1:-2:-2:0.0473633:-0.820312:0.560059:0.6875:-2.0625:-4.3125
1562062788958999:0:-1:0:-1:1:-1:-1:1:0.0585938:-0.826172:0.570801:1.625:-2.375:-5.875
1562062789019005:-2:1:-1:-1:-1:-1:-5:-3:0.065918:-0.819336:0.570312:0.375:-0.9375:-8.1875
1562062789072011:-1:0:-1:-5:1:-1:1:0:0.0732422:-0.816895:0.57666:0.5625:0.3125:-8.9375
1562062789119015:-1:0:1:-1:-2:0:1:0:0.0800781:-0.825195:0.571777:-0.375:0.625:-7.25
1562062789180021:-1:-1:-2:-1:1:-2:-1:-1:0.0830078:-0.823242:0.57373:-1.5:0.1875:-5.6875
1562062789222026:-1:-2:-5:-4:0:1:-2:-1:0.0864258:-0.827637:0.57373:-0.75:0:-2.8125
1562062789274031:-1:-1:-3:-2:2:1:-2:-1:0.0878906:-0.820312:0.570801:-0.4375:0.0625:-2.375
1562062789318035:0:0:4:2:1:-1:0:0:0.0869141:-0.819336:0.568848:-0.5625:0.125:-2
1562062789372041:0:-2:-2:-3:-1:-3:-2:0:0.0917969:-0.819824:0.567383:-0.375:0.1875:-2
1562062789424046:-1:-2:0:0:-2:-3:0:-2:0.0864258:-0.822266:0.570312:-0.8125:0.1875:-0.9375
1562062789477051:0:0:0:-2:0:-2:1:-2:0.0942383:-0.82959:0.571777:-0.75:0.0625:-0.375
1562062789523056:-1:-2:0:0:1:0:-1:0:0.0854492:-0.821777:0.571777:-1.25:0.125:0.375
1562062789574061:1:1:2:-1:-3:0:1:-1:0.0825195:-0.818359:0.568848:-1.3125:0:0
1562062789622066:-1:-1:2:2:-2:0:1:0:0.0908203:-0.821777:0.566406:-0.625:0:-0.3125
1562062789679071:-1:-1:-2:2:0:-1:-2:0:0.0952148:-0.825195:0.571289:-2.375:0.125:-0.875
1562062789724076:1:-1:-1:0:2:0:2:0:0.0878906:-0.82666:0.564453:-1.75:-0.4375:-0.3125
1562062789776081:-2:0:-1:-1:-3:-2:-1:0:0.0917969:-0.820801:0.562988:-0.6875:-1:-0.0625
1562062789821086:1:0:1:0:-1:1:-1:1:0.0917969:-0.821289:0.563965:-1:-1.375:0
1562062789881092:0:0:1:0:0:-2:-6:-1:0.0883789:-0.822754:0.569336:1.0625:-0.8125:0.1875
1562062789922096:0:0:1:-2:-2:-2:0:0:0.0878906:-0.819824:0.570801:-0.5625:-0.5625:-0.125
1562062789980101:-3:-3:-3:1:-1:2:0:-1:0.0849609:-0.822754:0.572754:1:-0.5625:-0.1875
1562062790025106:-1:1:-1:-1:2:-2:-1:-2:0.0913086:-0.828125:0.570801:-1.125:-0.4375:-0.25
1562062790076111:-1:-1:-2:-3:-3:-1:-2:-1:0.0932617:-0.82373:0.567871:0.0625:0.5:0.6875
1562062790122116:0:-4:-2:-1:-2:-2:-2:-1:0.09375:-0.825684:0.571777:-2.0625:1.5:2.1875
1562062790182122:-1:0:-2:-3:-4:-4:-3:-1:0.0996094:-0.833008:0.578125:-6.125:4.1875:4
1562062790233127:-2:2:3:3:-8:-2:0:0:0.115723:-0.819824:0.604004:-12.125:11.625:10.25
1562062790282132:1:-1:0:-2:4:0:-1:1:0.110352:-0.875488:0.621094:-21.9375:20.4375:16.25
1562062790324136:-1:0:-3:-2:1:-1:-1:-2:0.0717773:-0.871094:0.587891:-30.4375:48.125:33.25
1562062790384142:0:0:0:0:-2:1:1:-2:0.0170898:-0.882812:0.559082:-34.9375:63.5:46
1562062790429146:-2:-3:-2:-2:-1:-3:-2:-2:-0.0834961:-0.887695:0.499023:-34.3125:78.75:56.0625
1562062790481152:0:-1:-2:-3:0:-1:0:0:-0.146484:-0.867188:0.442383:-29.9375:83.3125:58.0625
1562062790527156:0:0:6:0:0:2:3:1:-0.247559:-0.849121:0.487305:-27.3125:76.3125:54.0625
1562062790579161:-1:0:1:0:-2:-2:-3:-1:-0.216797:-0.961426:0.505371:-11.3125:71.6875:44.0625
1562062790625166:0:-1:1:-3:-3:0:-1:-1:-0.324707:-0.939941:0.411133:8.125:69.3125:40
1562062790685172:1:1:5:-4:0:2:-2:1:-0.327637:-0.880859:0.366699:14.125:72.9375:38.125
1562062790724176:-2:-2:-3:-5:0:0:0:0:-0.435059:-0.805664:0.308105:22.75:70.3125:34.625
1562062790785182:2:1:-1:1:5:1:4:2:-0.473145:-0.77002:0.24707:24.5:62.0625:26.4375
1562062790827186:-1:-1:-1:-2:-5:-1:-1:-2:-0.535645:-0.743164:0.220703:30:45.3125:11.1875
1562062790879191:-2:0:-4:-8:-4:0:-1:-1:-0.557129:-0.746582:0.218262:32.4375:33.125:-0.3125
1562062790925196:0:-2:-4:-10:3:1:1:0:-0.552246:-0.729492:0.26123:34.9375:17.25:-17.75
1562062790984202:-1:-2:-5:0:-9:-1:-1:-1:-0.529297:-0.759277:0.299316:27.8125:14.375:-27.625
1562062791036207:-1:-1:1:8:4:3:-2:-3:-0.500488:-0.787109:0.361328:26.6875:22.0625:-38.3125
1562062791085212:-2:-2:-6:1:-2:0:0:0:-0.452637:-0.818359:0.388672:27.4375:30.3125:-44.5625
1562062791128216:-1:-4:-3:0:2:0:-3:1:-0.364258:-0.838379:0.402344:32.3125:49:-55.1875
1562062791187222:-1:0:1:-5:-4:-4:-1:0:-0.374023:-0.844727:0.425293:34.25:58.125:-62.375
1562062791225226:-1:-1:-5:-2:0:-3:-3:-4:-0.339844:-0.790527:0.361816:39.125:72.25:-82.25
1562062791284232:1:-2:-5:-6:-3:0:4:-2:-0.318848:-0.836426:0.303223:31.25:82.6875:-96.6875
1562062791337237:-1:-1:1:1:1:-1:0:-1:-0.325195:-0.849609:0.26123:25:91.25:-103.5
1562062791389242:1:3:2:4:4:1:-1:2:-0.28418:-0.845703:0.238281:8.4375:95.875:-106.938
1562062791427246:-3:0:1:0:0:-3:-7:-3:-0.271484:-0.925293:0.209961:-2.8125:106.125:-105.25
1562062791488252:0:1:1:2:3:0:1:1:-0.149414:-0.980957:0.17334:-32.5:102.562:-95.6875
1562062791539257:-2:-1:2:2:1:-9:5:0:-0.194824:-1.02979:0.138672:-40.9375:104.812:-93.9375
1562062791587262:-1:-1:-6:-6:-1:3:17:14:-0.122559:-1.07959:0.106445:-48.6875:96.125:-94.8125
1562062791630266:-1:1:4:2:-5:-5:-4:-1:-0.0585938:-1.10303:0.0859375:-40.25:94.125:-101
1562062791689272:-19:-2:0:-1:-5:-2:-1:-7:0.123047:-1.01758:0.0605469:-31.6875:90.9375:-112.625
1562062791741278:1:0:-8:0:0:0:-4:-2:0.259277:-0.971191:0.0683594:-41.6875:89.1875:-112.312
1562062791788282:3:0:7:4:2:0:-4:-6:0.382812:-0.973633:0.090332:-62.375:95.875:-114.062
1562062791839287:-1:-5:-7:-4:0:0:2:0:0.369629:-0.937988:0.0844727:-78.9375:90.4375:-105.25
1562062791894293:2:-3:-3:-1:-1:1:5:10:0.37793:-0.919922:0.0371094:-77.4375:70.4375:-76.75
1562062791932297:1:-2:-2:1:-1:-2:-3:4:0.39209:-0.958496:-0.0380859:-54.6875:47.3125:-49.3125
1562062791990302:-2:-2:-8:-4:-3:-2:0:-1:0.452148:-1.00684:-0.163574:-11.1875:19.5:-19.125
1562062792041308:-1:1:-1:1:0:0:-9:-3:0.473145:-0.966309:-0.172852:0.125:8.75:-9.9375
1562062792079311:0:2:3:3:-1:0:1:6:0.509766:-0.935059:-0.145508:-6.9375:-0.625:-3.6875
1562062792139317:-1:-3:-10:-8:-3:-3:2:-7:0.507324:-0.914551:-0.102051:-4.3125:-10.625:3.125
1562062792195323:1:1:6:3:3:2:3:18:0.510254:-0.903809:-0.0546875:2.1875:-16.0625:8.1875
1562062792244328:-2:-3:-3:-3:-6:-5:0:0:0.493652:-0.89209:-0.0161133:7.75:-17.8125:11.625
1562062792293333:0:0:-1:-2:-4:-3:0:-6:0.464355:-0.890625:-0.0136719:9.125:-19.9375:17.8125
1562062792330336:0:0:1:-4:-1:-1:-7:-2:0.464844:-0.901367:-0.0239258:8.625:-18.1875:18.75
1562062792390342:0:-3:-1:-4:-2:-1:-2:3:0.44043:-0.90332:-0.0268555:-0.9375:-14.3125:17.875
1562062792435347:2:1:-18:-8:-6:-6:1:-3:0.422363:-0.891113:-0.0214844:-2.625:-14.75:19.625
1562062792495353:-3:1:-6:-1:3:-3:5:1:0.39502:-0.924316:-0.0629883:12.375:-20.3125:26
1562062792545358:-10:-1:1:2:0:-3:0:-1:0.382324:-0.922363:-0.0649414:8.25:-23.1875:29.125
1562062792592363:-2:-1:1:0:1:5:5:9:0.356934:-0.959961:-0.0888672:7.875:-24.9375:31.8125
1562062792641368:-1:-1:2:4:4:-1:0:-2:0.339355:-0.969727:-0.10498:5.25:-26.875:34.625
1562062792693373:3:1:2:10:6:-3:5:7:0.286621:-0.996582:-0.118652:9.5:-34.75:42.1875
1562062792748378:-1:-1:-1:-2:1:4:20:-10:0.25293:-0.990723:-0.123535:11.5:-39.6875:45.875
1562062792795383:2:0:3:-4:0:1:-6:-1:0.212891:-1.00195:-0.114258:4.8125:-49.875:56.25
1562062792844388:-2:0:-1:3:-5:-14:-13:3:0.180664:-1.02832:-0.10791:5.125:-55.1875:62.875
1562062792892393:-3:-2:-1:-3:11:6:20:2:0.105957:-1.04639:-0.109863:4.5625:-63.5625:73.8125
1562062792941398:-2:0:0:4:-1:3:-6:1:0.0576172:-1.05518:-0.0991211:8.4375:-70.75:83.4375
1562062793002404:-2:-2:-1:5:-1:-9:-23:-7:-0.0688477:-1.06934:-0.106445:6.4375:-78.125:94.375
1562062793046408:-2:-1:-2:-2:-8:0:4:-4:-0.137207:-1.05957:-0.102051:4.1875:-87.875:99.5
1562062793094413:-1:3:7:4:1:-3:-6:-5:-0.265625:-1.0415:-0.078125:16.125:-95.1875:99.9375
1562062793155419:-1:0:5:7:-3:-1:-2:4:-0.34082:-0.925781:-0.0454102:12.125:-98.875:85.875
1562062793204424:1:5:9:-1:-6:-10:-2:3:-0.377441:-0.904297:-0.0146484:8.6875:-101.625:78.125
1562062793251429:0:0:-2:4:5:2:1:0:-0.438965:-0.874512:0.0546875:4:-106.812:64
1562062793301434:0:1:4:3:3:-1:-22:-1:-0.437988:-0.884277:0.090332:3.375:-115:59
1562062793354439:0:0:3:1:-1:0:-1:-13:-0.502441:-0.875:0.149414:-8.9375:-124.75:44.8125
1562062793406444:0:1:3:2:8:2:4:2:-0.475586:-0.830566:0.15625:-4.9375:-137.25:41.6875
1562062793455449:-1:0:-1:-7:-2:1:9:11:-0.497559:-0.835938:0.211914:-13.3125:-147.625:41.0625
1562062793503454:0:0:-1:2:-3:1:-2:2:-0.479004:-0.777344:0.227539:-21.625:-150.062:44.5
1562062793555459:0:0:-2:-4:12:5:1:4:-0.449219:-0.834961:0.309082:-32.0625:-146.938:51.875
1562062793611465:-2:-3:-4:1:11:-1:5:1:-0.450684:-0.805176:0.377441:-26.5:-137.625:55
1562062793656469:-3:-2:1:10:6:-1:-14:-5:-0.372559:-0.82373:0.428223:-40.3125:-129.312:45.6875
1562062793706474:0:-1:-6:-8:-5:-3:4:-1:-0.360352:-0.803711:0.445312:-36.5625:-115.562:41.625
1562062793766480:0:-3:-6:5:-11:-1:2:2:-0.322754:-0.81543:0.467285:-35.625:-93:30.375
1562062793804484:-1:-1:1:-2:4:-1:10:15:-0.321777:-0.827148:0.513672:-26.5625:-74.5:24.8125
1562062793855489:-1:-1:-3:10:-2:-4:-4:-2:-0.309082:-0.824219:0.49707:-22.9375:-62.25:15.375
1562062793910494:1:0:3:-2:3:3:-2:-4:-0.292969:-0.825195:0.506348:-21.1875:-45.9375:14
1562062793957499:-2:-3:-6:-2:-3:0:-1:7:-0.286133:-0.835449:0.490723:-11.6875:-30.5625:13.6875
1562062794006504:-2:-2:-3:-6:-13:-4:6:-4:-0.302734:-0.811035:0.483887:-15.875:-18.9375:16.125
1562062794055509:1:-1:-4:3:2:1:-1:4:-0.307129:-0.837891:0.487305:-18.75:-5.625:20.8125
1562062794115515:0:1:0:1:0:0:1:2:-0.347168:-0.818359:0.466309:-13.5:0.625:18.0625
1562062794163520:0:-1:-3:-3:-2:1:2:0:-0.331055:-0.821777:0.444336:-16.8125:1.5:17.875
1562062794209524:0:0:-1:2:-4:-2:-1:5:-0.355469:-0.730469:0.475586:36.9375:-12.625:-7.125
1562062794256529:-1:-1:-1:-5:-7:-3:0:-4:-0.404297:-0.870605:0.395996:-27.1875:-6.1875:4.8125
1562062794306534:-3:-1:0:1:-2:-4:-2:0:-0.40332:-0.750977:0.441406:3.6875:0.5625:9.4375
1562062794367540:1:1:0:-1:-1:-2:-1:2:-0.39502:-0.848633:0.456543:-9.5:-2.8125:10.25
1562062794412545:-2:-2:-1:-4:-1:-3:-1:-1:-0.391602:-0.803223:0.429688:-5.5625:-0.9375:12.625
1562062794456549:-1:1:0:-5:-9:2:1:-1:-0.381348:-0.805664:0.424805:-12.4375:-1.8125:12.4375
1562062794516555:0:0:-1:-3:0:0:0:1:-0.376465:-0.82666:0.450195:-9.5:4.8125:14.3125
1562062794557559:-2:-2:-1:2:5:-2:-3:-2:-0.394043:-0.867676:0.480469:-10.3125:0.1875:9.875
1562062794616565:2:0:1:-7:1:-3:2:1:-0.438965:-0.830078:0.425293:-3.9375:1.5625:7.6875
1562062794667570:0:0:2:-3:0:2:2:-1:-0.452637:-0.795898:0.431641:-0.3125:1:9.4375
1562062794717575:0:0:-2:4:0:-1:-2:-3:-0.472656:-0.820312:0.425293:0.6875:-1.9375:9.8125
1562062794757579:0:-1:-2:4:1:2:-1:1:-0.461914:-0.787109:0.415527:-1.625:-5.5625:9.875
1562062794816585:1:0:-2:2:1:-2:3:0:-0.458496:-0.807129:0.411621:-1.0625:-5.9375:10.4375
1562062794869590:1:1:-2:-4:-3:0:0:1:-0.453125:-0.794434:0.429199:-5.3125:-5.375:8.375
1562062794917595:-1:-2:-3:3:-12:-1:0:-1:-0.459473:-0.795898:0.443848:-2.4375:-4.3125:5.75
1562062794966600:-3:0:-3:3:9:5:0:-1:-0.461914:-0.790039:0.445312:-1.25:-3.1875:0.9375
1562062795017605:0:-1:0:10:5:1:-1:1:-0.467773:-0.801758:0.449707:3.9375:-1.375:-5.5625
1562062795072611:0:1:6:-3:0:-2:0:2:-0.464844:-0.79248:0.4375:4.125:-0.6875:-13.3125
1562062795116615:-2:-2:-6:-7:-2:-1:-1:-2:-0.471191:-0.790527:0.441406:8.25:-2.3125:-17.6875
1562062795176621:1:1:1:-2:10:1:1:1:-0.425293:-0.811035:0.487305:12.4375:-5.25:-26.625
1562062795217625:-1:0:0:1:8:-1:-2:-1:-0.373535:-0.816406:0.490723:12.75:-3.0625:-31.9375
1562062795275631:-2:-4:-7:-1:-1:-2:0:-1:-0.318359:-0.868652:0.578613:21.0625:12.6875:-32.6875
1562062795318635:1:-1:0:-1:-1:-4:-1:0:-0.316406:-0.862305:0.595703:30.6875:27.6875:-36.0625
1562062795372641:-2:0:3:-1:5:4:0:1:-0.343262:-0.873047:0.621094:36.6875:47.375:-38
1562062795424646:0:-1:0:0:-1:3:0:1:-0.343262:-0.850586:0.589844:55.1875:61.4375:-47.4375
1562062795476651:0:0:-2:-1:2:2:1:1:-0.299316:-0.791504:0.559082:46.1875:69.875:-61.8125
1562062795529656:0:1:4:5:14:2:1:0:-0.300781:-0.778809:0.51709:51.4375:83.3125:-69.6875
1562062795580661:-2:-2:1:-4:-3:-3:-1:-1:-0.239258:-0.755371:0.527832:40.8125:90.875:-77.4375
1562062795619665:1:2:3:3:6:1:1:-1:-0.255371:-0.776367:0.497559:27.375:99.125:-83.125
1562062795679671:1:-2:-1:3:-3:0:-2:0:-0.247559:-0.83252:0.492676:3.875:100.5:-85.125
1562062795719675:-3:-1:-3:-6:-5:-3:-2:-2:-0.272949:-0.86377:0.453125:0.5:105.812:-84.9375
1562062795779681:-1:-1:-3:-6:-2:-1:0:2:-0.247559:-0.912598:0.419922:-15.0625:103.125:-83
1562062795828686:-1:-4:-8:1:-2:0:0:-1:-0.243164:-0.921387:0.371094:-6.5625:105.375:-84.3125
1562062795880691:1:0:0:-4:-3:-1:-2:1:-0.161621:-0.902832:0.331055:-23.375:102.125:-85.75
1562062795919695:-1:0:0:1:0:-1:0:-2:-0.130371:-0.905273:0.314453:-23.875:100:-84.125
1562062795978701:0:-1:-4:-2:-1:-2:-1:0:-0.103516:-0.858887:0.327637:-41.875:92.8125:-71.8125
1562062796032707:0:-1:3:2:-1:-1:-3:-13:-0.163086:-0.868164:0.313965:-54.125:54.625:-31.9375
1562062796079711:-1:-3:-6:-10:-7:-3:-1:0:-0.0961914:-1.05859:0.161621:-30.1875:34.75:-13.5
1562062796128716:-2:0:1:-3:1:-1:-3:1:-0.152832:-1.01367:0.0957031:-16.3125:25.75:-6.3125
1562062796181722:-1:2:-2:-2:-1:-3:-1:0:-0.169922:-0.998535:0.0878906:-14.6875:13:-3.25
1562062796234727:-1:-3:-5:-2:-1:0:3:0:-0.147949:-1.0127:0.11084:-21.1875:8.375:-4.6875
1562062796279731:0:0:-3:-5:0:-1:1:-1:-0.117188:-1.0166:0.125:-9:2.75:-3.1875
1562062796332737:-2:-4:-9:-4:0:0:0:-2:-0.116211:-0.98584:0.153809:-7.625:-2.0625:-0.625
1562062796382742:-4:-4:-7:-5:-3:-2:-2:-1:-0.132324:-1.00586:0.161621:-5.1875:-3.6875:0.0625
1562062796437747:1:0:2:2:2:-1:-4:0:-0.119141:-0.989746:0.151855:-3.4375:-1.125:-2.25
1562062796481752:1:-1:-1:1:0:-2:-2:-3:-0.110352:-0.998535:0.157227:-1.8125:-2.1875:-2.4375
1562062796519755:0:-1:-1:-4:-1:0:0:2:-0.119629:-0.989258:0.168457:-3.5:-1.625:-2.625
1562062796579761:-1:1:-1:-4:0:-1:0:0:-0.101562:-1.00391:0.151855:0.5625:-2.6875:-0.75
1562062796639767:0:-1:-1:3:1:0:-3:-1:-0.110352:-1.00293:0.148438:-2.1875:-1.9375:-1.25
1562062796682772:1:1:0:1:-1:-3:0:1:-0.120117:-1.01562:0.147949:-1.625:-1.0625:-1.3125
1562062796738777:2:5:9:7:5:1:-1:0:-0.120117:-1.00293:0.156738:-4.3125:-0.3125:-0.5625
1562062796780781:-1:-2:-3:-3:-1:0:-1:-2:-0.114258:-1.0166:0.149902:-1.25:0:-0.75
1562062796841788:-1:-2:-5:-5:-2:-1:1:1:-0.111328:-1.00879:0.13916:-3.5625:-0.1875:0.6875
1562062796882792:-3:-2:-3:-1:-2:-3:-4:-4:-0.112793:-1.00977:0.139648:-1.6875:-0.5:0.6875
1562062796941798:0:0:1:1:1:1:-2:1:-0.11377:-1:0.135254:-0.75:-1.0625:1.125
1562062796991803:-1:2:2:0:-1:-2:-2:-2:-0.112793:-0.99707:0.135254:-1.1875:-0.9375:0.25
1562062797043808:-2:0:1:3:2:1:1:0:-0.117676:-1.00635:0.146484:-2.375:-0.25:-0.75
1562062797080811:-1:3:4:1:-1:-1:-2:-1:-0.111328:-1:0.13916:-3.4375:0.25:-0.9375
1562062797141818:1:0:-1:0:1:1:0:2:-0.107422:-0.996094:0.141602:-1.4375:1.25:-0.875
1562062797194823:0:0:-2:2:1:0:1:-1:-0.119629:-1.00195:0.140625:-2.9375:1.5625:-0.25
1562062797240827:-1:2:1:-1:-1:0:-2:1:-0.115723:-1.00342:0.128906:-1.0625:1.25:0.25
1562062797287832:-1:-3:-3:0:-1:-1:-2:-3:-0.115234:-0.992188:0.127441:-1.5625:-0.375:1.75
1562062797344838:-1:0:1:-1:0:2:-3:-1:-0.115723:-0.998047:0.109863:-3.8125:-1:1.3125
1562062797380841:0:-1:0:1:0:-1:0:1:-0.114258:-0.988281:0.115723:1.375:-2.125:0.5
1562062797440847:0:-1:-2:-3:-3:-1:-2:-3:-0.112793:-1.00049:0.115723:-1.4375:-2.375:-1.375
1562062797484852:0:1:3:2:0:-3:0:2:-0.114746:-1.00098:0.128906:0.5:-1.9375:-2.625
1562062797545858:-2:-3:-6:-2:-1:0:0:1:-0.119629:-1.02637:0.128418:-1.3125:-1.8125:-1.4375
1562062797584862:-3:-3:-1:-3:-4:-1:0:-2:-0.107422:-1.00244:0.141113:-0.9375:-0.5:-1.4375
1562062797643868:0:1:6:7:2:0:0:0:-0.102539:-1.01514:0.129883:-1.625:0.375:-0.1875
1562062797684872:3:1:0:-2:1:-2:0:-1:-0.106445:-1.0127:0.126465:-2.25:0.5:0.8125
1562062797744878:0:-1:-2:-2:1:1:-2:-2:-0.11084:-0.997559:0.130859:-0.8125:0.8125:1.4375
1562062797793883:-1:-2:-6:-2:-2:-1:0:-1:-0.111328:-0.996582:0.123047:-0.1875:0.8125:1.625
1562062797844888:1:0:-1:1:-1:0:0:1:-0.117188:-1.00049:0.111816:-1.8125:0.5:1.25
1562062797876891:0:0:-2:-1:-1:-2:-1:-1:-0.115234:-0.981934:0.115723:0:0.0625:0.5625
1562062797944898:-2:-1:0:0:0:1:0:-2:-0.118652:-0.994141:0.115723:0.25:-0.5625:-0.5625
1562062797996903:-1:0:-7:-1:-5:-3:-2:0:-0.111816:-0.997559:0.118652:-0.875:-0.875:-1.375
1562062798044908:0:1:1:1:-1:-3:-2:-1:-0.108887:-1.00049:0.118652:-1.3125:-0.6875:-1.625
1562062798085912:0:1:2:5:0:1:-1:0:-0.111816:-1.01025:0.126953:-1.375:-0.625:-1.375
1562062798146918:1:0:4:7:3:1:0:-1:-0.11084:-1.01221:0.12207:-1.25:-0.5:-0.625
1562062798183922:0:-1:-2:-3:-2:0:1:-1:-0.106934:-1.01807:0.12207:-2.375:0.25:-0.3125
1562062798243928:1:0:-2:0:0:-2:-2:0:-0.109863:-1.00391:0.120605:-0.75:0.1875:1
1562062798296933:-1:0:2:-3:-1:-2:-2:0:-0.106445:-1.00732:0.111816:0.375:-0.125:0.4375
1562062798346938:-2:-1:-4:-2:-2:-1:-2:-2:-0.116211:-0.995117:0.109863:-1:-0.25:-0.0625
1562062798393943:-2:-1:0:-3:0:0:-2:-2:-0.107422:-1.00146:0.105469:-2.125:0.1875:0
1562062798448948:-3:-2:-5:-3:-1:0:-4:-3:-0.108887:-1.00293:0.115723:-3.4375:-0.1875:-0.75
1562062798483952:-2:-2:-5:-1:-2:-2:-1:0:-0.109863:-0.994629:0.109375:-1.375:-0.5625:-1.25
1562062798546958:0:-1:0:0:-4:-2:-1:-1:-0.113281:-1.00586:0.120117:0.1875:-0.875:-1.3125
1562062798599963:0:-1:3:2:-1:-1:1:1:-0.100098:-1.00439:0.111328:-1.5:-1.0625:-0.4375
1562062798644968:-3:-2:-2:-3:-1:-1:-1:0:-0.11377:-1.02441:0.11084:-0.375:-1.3125:-0.1875
1562062798686972:-1:0:2:-2:2:1:-2:0:-0.105957:-1.00781:0.11084:-0.0625:-0.8125:-0.6875
1562062798746978:-1:-1:0:-2:-3:-3:-1:-2:-0.102539:-1.0083:0.113281:0.25:-0.25:-0.375
1562062798787982:-2:1:-3:-4:-6:-2:-2:1:-0.097168:-1.01221:0.116211:-0.375:0.1875:-0.25
1562062798846988:0:2:0:1:1:-1:0:-2:-0.102539:-1.00928:0.108887:-2.125:0.9375:-0.625
1562062798888992:-2:-1:-2:-4:-3:-2:-1:-1:-0.105957:-1.00586:0.113281:1.25:2.1875:-2.5625
1562062798951999:1:2:3:3:2:0:0:0:-0.100586:-1.02393:0.0981445:-0.375:3.5625:-4.3125
1562062798987002:-1:-1:-3:-1:-1:-2:0:-1:-0.106934:-1.01758:0.097168:0:5.375:-7.25
1562062799047008:-2:-1:4:3:0:-3:-5:0:-0.110352:-1.01953:0.0917969:0.0625:6.125:-8.9375
1562062799103014:2:-1:-10:-9:-4:-1:0:-2:-0.0737305:-1.02051:0.111328:-1:6.9375:-10.5
1562062799147018:-1:0:2:0:-2:-2:-2:0:-0.0649414:-1.0249:0.106445:3.9375:7.5:-11.9375
1562062799204024:-1:-1:2:1:2:1:0:-1:-0.0722656:-1.06738:0.0898438:1.6875:11.625:-12.4375
1562062799250028:0:-2:-4:-5:-2:-1:0:1:-0.0273438:-0.977051:0.09375:-9:12.6875:-11.5
1562062799293033:-2:-2:-2:-2:0:-1:0:-2:-0.0332031:-0.983887:0.0991211:-8.5625:13.4375:-11.4375
1562062799350038:1:3:4:6:2:0:-1:0:-0.0537109:-1.02295:0.0986328:-21.125:15.0625:-13
1562062799402044:-1:-1:-3:-3:-3:1:2:1:-0.0180664:-0.984863:0.0776367:-18.375:15.625:-13.25
1562062799451048:1:1:2:2:-1:-3:-2:0:0.00390625:-1.00049:0.0693359:-13:15.6875:-10.4375
1562062799489052:-1:-2:-6:-4:-2:0:-2:-2:0.0341797:-1.0625:0.0454102:-8.75:13.5625:-7.625
1562062799549058:-2:0:-3:-1:-2:-1:-2:-2:0.0361328:-0.992188:0.0629883:-4.5625:12.5:-6.875
1562062799602064:0:-1:0:0:3:0:0:-1:-0.0166016:-1.00293:0.0341797:11.75:12.6875:-7.5
1562062799646068:-1:1:3:1:-1:0:-2:-1:-0.0541992:-1.11963:0.0273438:-11.375:13.5625:-5.125
1562062799707074:-1:1:1:-2:-2:-2:-1:-1:-0.0258789:-0.939453:0.0600586:11.4375:9:-1.9375
1562062799748078:0:-2:1:3:1:1:1:1:-0.0180664:-1.03662:0.0419922:-3.375:7.75:-0.75
1562062799805084:1:-2:-8:-6:-5:-4:-3:-2:-0.00341797:-0.979492:0.0566406:5.375:4.1875:-3.125
1562062799849088:2:1:2:1:1:2:4:2:0.000488281:-1.01514:0.0375977:-9.375:0.6875:1.375
1562062799901093:0:0:4:5:1:-3:-3:-2:0.00244141:-0.983887:0.0556641:4.9375:-1.5625:3.5
1562062799947098:1:0:2:1:1:1:0:-2:0.0185547:-1.03809:0.0644531:-6.6875:-4.75:11
1562062800010104:0:0:0:-3:-2:-2:0:0:0.043457:-0.997559:0.0625:-13:-5.25:9.3125
1562062800051108:-2:-2:-1:-1:0:0:0:0:-0.0371094:-1.01514:0.0615234:-1.875:-6.3125:5.5
1562062800112115:-2:-1:3:0:1:-1:0:1:-0.0698242:-1.04443:0.015625:-12.4375:-5.625:3.75
1562062800149118:0:1:-2:-2:-3:-3:-2:-2:-0.0795898:-0.991699:0.019043:-0.5:-4.4375:0.75
1562062800210124:-1:-1:0:-3:-4:-3:-2:-1:-0.0571289:-1.02002:0.00341797:-9.875:-5.5625:3.375
1562062800261129:0:-1:-1:-2:2:2:2:1:0.0161133:-1.02197:0.000488281:-3.6875:-5.6875:3.0625
1562062800309134:1:3:6:7:5:2:0:1:-0.0219727:-1.00977:0.0078125:-9.5:-5.75:6.8125
1562062800352139:-1:-2:1:1:-3:0:1:-1:-0.019043:-1.0415:0:-9:-6.25:11.0625
1562062800411144:0:1:1:4:1:-1:0:1:-0.0566406:-1.02344:-0.00585938:-9:-5.5625:9.75
1562062800465150:0:0:-1:-2:-2:-2:-2:0:-0.0668945:-1.03174:-0.0117188:-5.75:-5.25:8.625
1562062800509154:-1:-2:-2:0:-1:0:0:0:-0.0678711:-1.00635:-0.0253906:-6.9375:-5.9375:8.4375
1562062800565160:0:1:3:-1:0:-2:-2:0:-0.0805664:-0.989746:-0.0405273:-8.4375:-5:8.875
1562062800609164:-1:-2:-1:-3:-3:-2:-1:-2:-0.0546875:-0.976074:-0.0307617:-3.625:-5.375:9.1875
1562062800651168:1:1:4:3:0:0:0:-1:-0.034668:-0.95459:-0.0307617:-4.875:-4.5:6.4375
1562062800712175:-1:-1:-1:-8:-3:-2:0:-1:-0.0673828:-0.969238:-0.0498047:-2.4375:-2.1875:-0.625
1562062800764180:-1:-1:-3:2:-3:-2:-1:-1:0.0117188:-1.00195:-0.0429688:-10.75:-8.3125:8.875
1562062800809184:0:-2:7:5:2:0:2:1:-0.104492:-1.04297:-0.050293:-13.375:-7.875:4.4375
1562062800864190:-2:-3:-3:0:1:1:1:0:-0.124023:-1.04492:-0.0332031:-2.6875:-8.75:4.0625
1562062800914195:1:2:1:8:1:0:-1:-1:-0.154785:-1.0332:-0.0576172:-6.6875:-5.5:-1.4375
1562062800967200:-3:-2:-1:-5:-3:-2:-2:-2:-0.168945:-0.968262:-0.0751953:-4.3125:-0.25:-5.25
1562062801011204:-1:1:0:1:2:-1:0:0:-0.125:-0.976562:-0.0932617:-16.5:2.5:-6.125
1562062801064210:-1:-3:-2:-6:-1:-1:0:-1:-0.0512695:-0.952148:-0.137695:-27.25:6.125:-9.6875
1562062801112215:-4:-1:-9:-19:-9:-5:-6:-3:-0.0244141:-0.956543:-0.175293:-56.0625:9.25:-17.5625
1562062801169220:0:1:5:-2:-4:-1:0:-1:-0.00634766:-0.970215:-0.207031:-65.3125:9.75:-21.6875
1562062801214225:-12:-4:-8:-13:-5:-3:-3:-5:-0.00488281:-0.936523:-0.241699:-78.125:9.125:-23.9375
1562062801267230:-4:-2:-6:3:0:-1:-4:-9:0.0185547:-0.965332:-0.327637:-88.875:12.125:-28
1562062801312235:-1:-3:-2:-15:-13:-5:-9:-3:0.0170898:-0.964844:-0.362305:-60.25:8.5625:-26.5
1562062801372241:-2:3:-11:-1:0:-1:-2:-3:0.012207:-0.979492:-0.424316:-46.25:8.3125:-21.6875
1562062801412245:3:-3:3:7:7:1:4:1:0.065918:-0.961914:-0.479004:-27.25:8.6875:-16.375
1562062801472251:-11:-16:-41:-38:-22:-2:17:4:0.0649414:-0.92334:-0.48877:-22.6875:6.9375:-11.9375
1562062801514255:-1:-4:2:2:-2:1:6:0:0.0737305:-0.925781:-0.520996:-16.4375:5.375:-9.5
1562062801567260:-4:-25:-66:-45:-26:-10:13:1:0.102051:-0.895996:-0.522461:-10.375:2.5625:-5
1562062801611264:0:2:-7:-3:-1:-2:-1:3:0.113281:-0.895508:-0.515625:-1.5:0.6875:-2.0625
1562062801672271:3:7:8:19:10:2:-1:-1:0.108398:-0.90918:-0.516602:-6.875:-0.5625:-0.25
1562062801718275:0:-1:7:-5:-2:0:-1:-1:0.115234:-0.865234:-0.513672:-0.6875:-2.0625:-0.1875
1562062801768280:39:9:24:28:13:6:4:4:0.106934:-0.885254:-0.513672:1.875:-2.75:0.3125
1562062801814285:-12:0:7:6:1:-1:-1:-1:0.0888672:-0.880371:-0.504395:-5:-0.9375:-1.375
1562062801874291:3:1:4:4:5:2:3:9:0.074707:-0.890137:-0.511719:-2.0625:-0.125:-1.8125
1562062801915295:4:-1:3:2:0:-1:3:1:0.0966797:-0.875977:-0.527344:-4.8125:0.875:-2.8125
1562062801975301:-19:-2:-19:-11:-3:0:5:-2:0.097168:-0.868164:-0.520996:0.5625:0.3125:-3.1875
1562062802025306:4:3:14:18:9:1:-5:-14:0.105469:-0.867188:-0.518066:-0.6875:0.375:-3.125
1562062802069310:-5:-12:-19:-9:-2:-2:-2:-2:0.111328:-0.869141:-0.521973:3.1875:-0.125:-2.8125
1562062802114315:4:0:0:-8:-7:0:0:0:0.121094:-0.887207:-0.515137:3.0625:0.5:-2.875
1562062802174321:11:1:7:4:3:2:0:-5:0.127441:-0.882812:-0.51709:0.5625:-0.0625:-2.0625
1562062802226326:21:1:6:9:8:3:3:2:0.111816:-0.876953:-0.518066:2.5625:-1.375:-0.8125
1562062802274331:-3:-7:-18:-11:-9:-3:-5:-6:0.105469:-0.903809:-0.509766:3.6875:-2.3125:1.375
1562062802317335:9:-5:-8:3:-2:-3:-6:0:0.112793:-0.893555:-0.51123:5.0625:-3.1875:2.9375
1562062802378341:-1:-1:-9:-10:-6:-4:0:3:0.111328:-0.890137:-0.502441:-0.375:-1.5625:2.4375
1562062802429346:0:0:5:1:0:1:4:7:0.105469:-0.866699:-0.49707:3.9375:-1.25:1.625
1562062802475351:4:2:4:0:-4:0:3:4:0.107422:-0.89502:-0.489258:3.25:-0.875:1.75
1562062802526356:-4:1:-2:-1:-2:0:-3:-1:0.102539:-0.895996:-0.5:2.25:-0.8125:1.625
1562062802580361:2:-2:-6:-9:-4:-2:-3:-6:0.0996094:-0.895508:-0.498535:-1.1875:0.1875:0.1875
1562062802616365:11:-6:-5:-3:-6:-4:-1:0:0.100098:-0.885254:-0.492188:1:0:-0.1875
1562062802676371:0:4:16:5:0:2:-1:1:0.0986328:-0.88623:-0.493164:-1.5:-0.0625:0.0625
1562062802729376:4:-2:0:-3:-6:-3:-2:-2:0.102539:-0.893555:-0.499023:1.0625:-0.9375:0.375
1562062802774381:-2:2:8:4:5:2:1:-3:0.0976562:-0.893555:-0.5:0.4375:-0.375:-0.1875
1562062802820385:-2:0:3:-1:-3:-2:-2:-1:0.105469:-0.89502:-0.491211:-1.6875:-0.375:-0.125
1562062802879391:-3:2:10:10:8:3:-2:0:0.102051:-0.893555:-0.493164:-0.0625:-0.6875:0.0625
1562062802932397:-2:5:11:9:8:5:-1:0:0.097168:-0.898438:-0.484863:-0.5:-1:0.5625
1562062802976401:-2:2:8:6:2:4:-3:-5:0.103516:-0.898926:-0.48877:-1.0625:-0.625:0.4375
1562062803029406:-8:-1:-2:-2:1:3:0:-1:0.103027:-0.886719:-0.493652:3:-0.5625:0.5625
1562062803077411:-10:-7:-18:-13:-5:-4:-2:-7:0.107422:-0.876953:-0.484863:4.375:-1.125:1.3125
1562062803135417:-21:0:4:4:0:0:0:2:0.097168:-0.897949:-0.482422:1.25:-0.625:0.6875
1562062803179421:5:4:10:12:7:3:3:0:0.0991211:-0.88916:-0.48291:2.6875:-0.6875:0.5
1562062803231426:3:-1:-4:-7:-5:-2:1:-2:0.102539:-0.894043:-0.48291:2.0625:-0.3125:0.125
1562062803276431:-6:-2:1:-2:0:-2:0:0:0.0976562:-0.895508:-0.477539:1.1875:-0.375:0.4375
1562062803329436:-2:3:11:8:6:1:1:-11:0.0996094:-0.898438:-0.480957:2:-0.1875:-0.0625
1562062803377441:8:-2:1:-2:-4:-2:-1:1:0.0942383:-0.901367:-0.483398:-0.125:-0.375:-0.0625
1562062803435447:-8:1:0:1:-2:-1:2:3:0.0961914:-0.902832:-0.480957:0.375:-0.375:0.5
1562062803479451:1:-3:-9:-5:-1:-2:0:0:0.0996094:-0.902344:-0.476562:0.4375:-0.6875:0.5625
1562062803531456:-4:-2:-6:-4:-1:-2:-1:0:0.0898438:-0.893066:-0.476074:1.5:-1.0625:0.5
1562062803577461:7:2:0:-1:-3:-2:0:0:0.0957031:-0.899414:-0.470703:0:-0.5625:0.5625
1562062803636467:-3:0:1:-2:-1:0:3:4:0.0917969:-0.905762:-0.460449:0:-0.5:0.75
1562062803689472:21:-1:0:-1:2:0:1:1:0.0932617:-0.876953:-0.46582:-0.625:-0.25:0.25
1562062803733477:3:-6:-15:-11:-5:-4:-2:-5:0.0976562:-0.904297:-0.471191:0.5625:-0.0625:0.0625
1562062803780481:13:1:12:2:0:1:0:4:0.0957031:-0.910645:-0.475586:-0.625:0:0.875
1562062803840487:-3:-7:-16:-23:-11:-4:-2:0:0.0991211:-0.880371:-0.47168:2.375:0:0.5
1562062803892493:-8:1:6:5:2:0:0:-10:0.0927734:-0.90625:-0.474121:2.875:0.3125:0.4375
1562062803939497:2:0:0:6:3:-1:0:1:0.0844727:-0.92334:-0.466309:7.125:-0.5:1.6875
1562062803982502:-4:0:1:-1:0:-1:-1:-2:0.0859375:-0.944336:-0.455566:13.0625:-3.6875:4.6875
1562062804042508:-2:-2:-1:3:0:-2:-1:1:0.0927734:-0.925293:-0.457031:24.125:-5.6875:5.5
1562062804093513:0:-3:-1:1:0:0:1:4:0.0712891:-0.954102:-0.423828:27.4375:-6.6875:7.625
1562062804139517:4:-1:-1:-3:-2:1:-2:-2:0.0693359:-0.998047:-0.366699:77.75:-9.9375:13.375
1562062804192523:2:3:2:3:0:-1:-2:1:0.0385742:-0.947266:-0.304688:83.375:-12.1875:13.375
1562062804239527:-2:1:0:-1:-2:-2:-2:0:0.0175781:-1.00098:-0.239258:76.8125:-10.9375:10.4375
1562062804282532:-1:-3:-2:-4:-3:-2:-1:-2:0.0302734:-0.95752:-0.1875:78.5:-11.5:8.1875
1562062804342538:-3:0:-2:-3:-1:-1:1:-1:0.0205078:-1.021:-0.111328:54.9375:-5.25:7.875
1562062804394543:0:-2:-1:2:1:0:1:0:0.00439453:-1.01367:-0.0527344:63.875:-8.25:8.375
1562062804439547:0:-2:-3:-3:-1:-2:0:1:0.0136719:-0.955566:-0.0273438:50.6875:-4.1875:7.625
1562062804491552:-2:-1:-3:-4:-1:-2:0:-1:-0.00195312:-1.04688:0.00244141:22.6875:-3.0625:7.125
1562062804544558:1:-1:3:-1:0:-2:0:0:-0.0102539:-1.01172:0.0229492:24.625:-2.3125:5.375
1562062804596563:0:2:2:1:2:0:-1:-2:-0.0131836:-0.995117:0.0439453:17.5625:-1.875:5.6875
1562062804642568:-1:-1:-3:-3:-2:-1:-2:-1:-0.0297852:-1.00488:0.0522461:15:-2.5625:5.9375
1562062804694573:0:-2:-3:-1:0:-3:-1:0:-0.0175781:-1.00488:0.0644531:11.125:-2.3125:5.0625
1562062804742578:-1:-1:-3:-3:-1:0:0:-1:-0.0341797:-1.02246:0.0869141:2.875:-2.0625:2.5
1562062804802584:0:2:2:-4:-1:-1:-3:0:-0.0336914:-1.01074:0.09375:12.25:-1.6875:1.5625
1562062804845588:-3:-5:-3:2:-3:0:0:-2:-0.0380859:-1.00537:0.112305:3.9375:-2.6875:2.9375
1562062804896593:-2:-2:-3:-4:-2:-1:-1:-2:-0.0327148:-1.0166:0.110352:7.0625:-2.4375:1.5625
1562062804942598:-1:-3:-3:3:-2:-1:-1:-2:-0.0366211:-1.01123:0.116699:7.8125:-1.75:1.625
1562062805003604:0:-2:-2:-2:-2:-2:-3:-2:-0.0458984:-1.00537:0.128418:9.5625:-3.25:2.5
1562062805054609:-2:0:0:-3:1:-2:-1:1:-0.0400391:-1.02393:0.128906:11.9375:-3.9375:2.0625
1562062805101613:1:2:6:6:2:1:0:2:-0.0385742:-0.963379:0.137695:12.5:-2.3125:1.75
1562062805144618:-1:1:7:-2:2:-1:0:1:-0.0366211:-1.01123:0.146973:3.875:-1.6875:0.8125
1562062805204624:0:-2:-5:-2:0:0:-1:-1:-0.0361328:-0.989258:0.152832:-0.875:-0.9375:0
1562062805242628:-2:-4:-54:-4:-5:-3:-2:-3:-0.0410156:-1.00732:0.152344:3.0625:-1.8125:0.5
1562062805305634:-2:1:5:2:3:1:1:0:-0.0390625:-1.00879:0.147461:3.875:-1.1875:0.25
1562062805354639:0:-1:7:3:0:-2:0:0:-0.0366211:-1.00195:0.153809:2.8125:-1.25:0.125
1562062805399643:1:0:19:5:-1:-1:0:-1:-0.0424805:-1.00146:0.166504:4.625:-1.5625:0.5625
1562062805448648:-2:-2:-9:-2:-3:2:0:-1:-0.0419922:-1.00244:0.162109:1.375:-1.5:1.0625
1562062805507654:2:2:5:3:2:1:-2:1:-0.0449219:-1.01025:0.165039:0.9375:-0.75:1.4375
1562062805557659:-2:0:-1:-2:-2:1:-2:-2:-0.0444336:-0.989746:0.166992:-1.3125:0.4375:0.875
1562062805604664:0:0:0:-2:0:1:0:-1:-0.0483398:-1.00293:0.164551:-5.5625:1.3125:0.375
1562062805650668:-2:-1:-4:-2:-4:-3:-2:-3:-0.0439453:-1.01172:0.166504:-0.5625:0.4375:0.625
1562062805710674:-1:-4:-7:-8:-5:-3:0:-3:-0.0444336:-0.996582:0.155762:0.125:-0.5625:-0.125
1562062805758679:1:3:9:8:6:3:1:0:-0.0454102:-0.996582:0.15625:0.5625:0:-0.5625
1562062805807684:1:1:1:-5:-6:-1:0:0:-0.0463867:-0.987305:0.154785:-2.25:0.125:-0.25
1562062805856689:-1:-4:-3:-7:0:1:2:-2:-0.0463867:-1.00488:0.156738:-4.125:0:-0.4375
1562062805908694:-3:-1:-2:1:-4:-1:-1:0:-0.0458984:-0.992188:0.159668:-3.1875:-0.25:-1.5
1562062805950698:-2:-1:-5:-7:-5:-2:-2:-4:-0.0429688:-1.0127:0.159668:-0.4375:-0.1875:-1.8125
1562062806010704:1:1:4:8:4:-1:1:0:-0.0444336:-1.01611:0.161133:-1.9375:-0.375:-0.75
1562062806059709:0:-2:-1:-2:0:-1:-3:-1:-0.0385742:-1.00635:0.157715:-0.8125:-0.0625:-0.625
1562062806107714:0:0:3:8:-2:-1:1:-2:-0.0415039:-1.01465:0.147461:-1.875:-0.125:0.0625
1562062806156719:1:1:4:-2:4:2:3:2:-0.0419922:-1.01367:0.147461:-0.0625:-0.625:0.5625
1562062806216725:0:-3:-3:-1:-2:-3:-2:0:-0.043457:-1.00391:0.148926:-1.0625:-0.25:0.375
1562062806267730:0:1:4:1:0:0:0:0:-0.0439453:-1.00342:0.146973:-0.9375:-0.3125:0.5625
1562062806309734:-4:-4:-10:-5:-8:-5:-3:-2:-0.0473633:-0.998535:0.150879:-1.75:-0.5625:0.75
1562062806359739:0:-1:-1:5:-2:1:2:0:-0.0341797:-0.994141:0.151367:-1.5:-0.25:-0.3125
1562062806419745:-2:-1:1:-1:0:0:-1:-2:-0.0415039:-1.01172:0.150391:-1.3125:0.1875:-0.8125
1562062806467750:1:1:3:3:0:1:-2:0:-0.0424805:-1.00049:0.148926:-0.9375:0.0625:0.125
1562062806516755:-2:-1:-3:-4:-1:-1:-1:-1:-0.0419922:-1.00537:0.146973:-3:0:0
1562062806562760:0:1:1:-2:-4:0:0:0:-0.046875:-1.0083:0.151367:-2.25:0.3125:-0.6875
1562062806609764:-1:-1:-2:-4:1:2:2:-1:-0.0375977:-1.00586:0.13916:-1.9375:0.0625:0.0625
1562062806669770:-2:0:1:15:-4:-2:-4:-3:-0.0395508:-0.996094:0.148438:-1.75:0.6875:-0.25
1562062806719775:0:0:2:1:3:2:-1:0:-0.0341797:-1.01123:0.142578:-2.3125:1:-0.3125
1562062806769780:-1:-2:-2:-1:-1:-3:-1:-2:-0.0439453:-1.00732:0.143555:-3.375:1.125:0.125
1562062806809784:1:0:1:2:-1:0:3:1:-0.0400391:-1.00586:0.134277:-0.25:0.625:-0.25
1562062806868790:0:0:-5:1:-4:-3:1:0:-0.043457:-1.00244:0.131836:-2.0625:0.5:-0.5
1562062806922796:-1:-1:1:2:2:0:-2:-2:-0.0405273:-1.00146:0.135742:-1:0.3125:-0.0625
1562062806969800:0:1:0:-2:2:2:0:-1:-0.034668:-1.00195:0.138184:-0.125:0.125:-0.25
1562062807019805:0:-1:0:-3:-2:-3:-2:-1:-0.0410156:-1.01025:0.134766:-0.1875:-0.125:-0.6875
1562062807070810:1:1:5:4:-1:-1:0:2:-0.043457:-1.01123:0.138672:2.125:-0.125:-0.3125
1562062807112815:-2:-2:-5:1:-1:-2:-1:-1:-0.0410156:-1.0083:0.133789:-0.25:0.0625:-0.5625
1562062807172821:1:-3:-3:-4:-3:-2:-3:-2:-0.0410156:-1.00488:0.142578:2.125:-0.125:0.3125
1562062807221825:-1:-1:-2:-3:1:2:3:1:-0.0439453:-0.997559:0.146484:-0.125:-0.1875:0.75
1562062807270830:2:3:10:12:2:1:0:1:-0.0332031:-0.995117:0.145508:1.5:0:0.0625
1562062807319835:-1:0:-1:2:-2:-3:1:0:-0.0405273:-0.990234:0.13916:0.6875:0.5625:-0.5625
1562062807371840:0:0:-1:0:0:-1:0:-2:-0.043457:-1.00537:0.146973:0:0:0.25
1562062807424846:0:-1:0:-2:-2:-1:-1:-1:-0.0356445:-1.00732:0.147461:0.9375:-0.5625:0.375
1562062807472851:1:0:-1:-2:0:2:1:-1:-0.0405273:-0.99707:0.144043:-0.1875:-0.75:-0.125
1562062807521855:-1:0:-2:3:-1:0:-2:-1:-0.0351562:-1.00342:0.137207:0.6875:-0.5:0.0625
1562062807572861:2:0:-1:2:0:-1:-1:0:-0.0390625:-1.00586:0.150879:0:-0.5:0.3125
1562062807627866:-3:-2:-6:-4:-2:-2:-2:-2:-0.0361328:-1.00537:0.147461:0.5625:-0.3125:0.375
1562062807671870:1:0:2:2:4:-1:0:-1:-0.0429688:-1.00342:0.152344:-0.6875:-0.375:0.5625
1562062807731876:0:-1:1:6:2:0:0:-1:-0.046875:-1.00244:0.147461:0.4375:-0.4375:0.4375
1562062807772881:0:-2:-1:3:0:1:0:1:-0.0410156:-1.00537:0.148438:-0.0625:-0.3125:0.5625
1562062807832887:1:1:1:1:0:2:-1:1:-0.0410156:-0.996094:0.145996:-0.25:-0.875:0.6875
1562062807881891:-3:-4:-14:-12:-8:-5:-4:-4:-0.0419922:-1.00049:0.150879:0.1875:-0.875:0.5
1562062807928896:-2:0:-2:0:0:0:-1:-1:-0.0483398:-0.993652:0.151367:-1.375:-0.6875:0.3125
1562062807971900:-6:-11:-30:-25:-17:-7:-5:-6:-0.0385742:-0.996582:0.146484:-2.9375:-0.5:0.25
1562062808031906:4:6:20:18:12:4:2:4:-0.0375977:-0.951172:0.137207:-12.125:5.0625:-1.375
1562062808071910:-2:-4:-4:-1:-3:-1:-2:-2:-0.0361328:-0.978516:0.122559:-32.1875:8.4375:-2.375
1562062808132917:4:3:11:2:3:3:2:2:-0.0415039:-1.00732:0.0898438:-45.4375:9.8125:-5.125
1562062808181921:-5:-5:-7:-5:-2:0:-4:-3:-0.034668:-1.04004:0.0620117:-46.5625:10.25:-5.8125
1562062808232927:-5:-8:-25:-25:-11:-3:-3:-6:-0.0200195:-0.963379:0.00292969:-66.6875:12.1875:-9.875
1562062808271930:-4:-3:-8:-4:-2:-3:-2:-7:-0.00585938:-0.98291:-0.0737305:-87.3125:14.875:-13.5625
1562062808330936:0:-2:-5:-3:-3:0:2:2:0.00976562:-0.96582:-0.164062:-91.3125:18.1875:-20.0625
1562062808385942:3:8:17:13:13:8:7:22:0.00488281:-1.01953:-0.23291:-75.1875:14.1875:-17.0625
1562062808432947:7:10:22:25:13:4:3:-7:0.0327148:-0.934082:-0.272949:-58.75:13:-17.0625
1562062808490952:-3:-8:-22:-11:-6:-2:6:-2:0.046875:-0.997559:-0.324707:-49.4375:11.625:-14.5
1562062808533957:-1:-3:-10:-9:-6:0:4:16:0.0693359:-0.984375:-0.384277:-34.1875:9.75:-12.375
1562062808587962:-2:2:9:3:4:-2:-5:-7:0.0761719:-0.97998:-0.39209:-14.0625:4.875:-6.4375
1562062808634967:0:-7:-17:-24:-6:1:7:-4:0.081543:-0.990723:-0.408691:-9.8125:2.4375:-2.375
1562062808690972:-1:1:3:-3:0:-1:4:0:0.0834961:-0.995605:-0.423828:-9.625:0:1.4375
1562062808735977:0:1:3:-3:-4:-1:-1:-12:0.0874023:-0.947266:-0.41748:3.75:-2:2.625
1562062808794983:-2:-2:-6:-1:-2:-1:-1:-6:0.0756836:-0.963867:-0.40332:-8.625:-1.1875:2.9375
1562062808834987:2:6:18:22:12:4:3:7:0.0751953:-0.929199:-0.396484:10.625:-3.5625:3.625
1562062808893993:0:-3:-7:-5:-2:-1:1:-1:0.0766602:-0.952148:-0.399414:-2.1875:-1.625:2.375
1562062808931996:1:3:4:4:1:1:0:-1:0.0644531:-0.924805:-0.374023:17.875:-3.125:1.625
1562062808993003:-2:-2:-2:-2:0:-1:-4:-1:0.0585938:-0.980957:-0.373047:13.75:-3.4375:1.3125
1562062809045008:-1:-1:2:-1:-1:-2:-2:0:0.0576172:-0.953613:-0.369141:23.1875:-7:2.875
1562062809096013:-1:-2:-3:-1:1:1:-4:-2:0.0717773:-0.975586:-0.342773:7:-2.1875:2.5625
1562062809134017:0:1:5:-1:0:-1:-3:-7:0.0600586:-1.00928:-0.329102:30.1875:-8.0625:5.8125
1562062809195023:-1:0:2:-2:0:0:0:0:0.0522461:-0.932617:-0.307129:19.75:-5.5625:5.3125
1562062809248028:-2:-3:-4:-6:-3:1:4:-4:0.0488281:-0.957031:-0.294922:-1.8125:-2.3125:2
1562062809296033:0:-2:-1:0:2:-3:1:4:0.0415039:-0.958496:-0.280762:-0.125:1.5625:0.4375
1562062809345038:-2:-1:-3:-9:-7:-2:-3:0:0.0458984:-1.00537:-0.29541:5.75:0.375:1.25
1562062809397043:2:1:-1:-2:-1:-1:1:5:0.0449219:-0.958496:-0.287598:15.25:0.5625:1.9375
1562062809450048:-1:0:1:2:2:0:-2:-2:0.0327148:-1.0459:-0.266602:35.25:-6.1875:5.8125
1562062809494053:2:1:3:2:2:1:-1:1:0.0307617:-1.04199:-0.257324:53.6875:-12.0625:7.5625
1562062809538057:1:1:-1:-1:3:4:3:1:0.027832:-1.01953:-0.212891:49.8125:-13:6.8125
1562062809598063:-3:0:0:5:-3:-3:-2:-2:0.0249023:-1.05811:-0.194824:56.5:-16.875:7.625
1562062809637067:-1:-1:13:-1:6:0:0:-1:0.0200195:-0.985352:-0.180176:55.75:-17.25:7.375
1562062809697073:0:0:-2:-6:-3:0:-1:-2:-0.00927734:-1.00781:-0.0917969:17.8125:-12.375:10.1875
1562062809751078:-2:0:-2:3:4:1:2:-1:0.00244141:-1.03516:-0.0288086:40.5:-15.5625:6.75
1562062809798083:-1:-1:-4:-2:8:-1:0:1:-0.0112305:-1.0249:-0.00488281:46.5:-16:2.375
1562062809847088:-2:1:0:4:-7:-1:0:-2:-0.00390625:-0.963379:0.0131836:53:-13.9375:-1.75
1562062809898093:-4:-1:-7:0:-4:0:1:0:-0.0151367:-0.950684:0.0898438:37.125:-10.4375:-4
1562062809953099:1:2:2:1:-2:-1:-1:-1:0.000488281:-0.977539:0.123535:30.9375:-7.375:-5.625
1562062809997103:0:-1:-1:-6:-1:-2:-1:0:0.00976562:-0.932129:0.133789:15.3125:-5.625:-6.125
1562062810057109:-1:-3:-2:-2:-1:-3:-2:-2:-0.000488281:-1.00781:0.152832:1.9375:-2.4375:-4.875
1562062810102113:1:-1:-4:-33:1:-1:0:-1:0.00878906:-1.03271:0.14209:5.6875:-2.4375:-5.1875
1562062810157119:1:1:3:7:7:1:1:0:0.0161133:-1.02393:0.152344:15.625:-3.4375:-3.25
1562062810207124:0:0:0:-3:-3:-1:-3:0:0.0292969:-1.0083:0.152344:4.5:-1.4375:-2.625
1562062810260129:-1:-2:-2:13:-5:0:-1:-2:0.0219727:-1.03711:0.159668:2.3125:-1.5625:0.625
1562062810297133:0:-1:-1:-7:0:-1:0:0:0.0205078:-1.00977:0.151367:3.6875:-0.875:1.5
1562062810357139:1:-1:0:-1:-1:-3:-1:0:0.019043:-1.00879:0.150879:0:-0.8125:2.625
1562062810411144:-1:-2:-5:-11:3:0:-2:-2:0.0161133:-1.01074:0.15918:0.9375:-0.9375:2.5625
1562062810461149:-1:-3:-6:-7:-16:-4:1:0:0.00830078:-0.984375:0.168945:1.625:-1.9375:2.75
1562062810499153:0:-1:1:1:-6:-2:-1:-2:0.00976562:-0.979004:0.17041:-2.5625:-0.5:3.1875
1562062810560159:-2:-2:-2:-2:0:-1:0:-2:0.00878906:-1.00391:0.165527:1.125:-1:3.25
1562062810596163:-2:-2:-5:-11:-1:1:-2:-2:0.012207:-0.992676:0.166992:2.5625:-0.3125:1
1562062810658169:1:1:0:-7:10:1:0:-1:0.00439453:-0.974121:0.16748:-0.9375:0.375:-0.9375
1562062810710174:0:-1:2:1:-1:0:-2:-1:0.00488281:-0.98584:0.172363:2.4375:0:-1.75
1562062810761179:-1:0:-4:-4:7:0:1:1:0.015625:-1.00439:0.164551:-2.375:0.875:-2.875
1562062810800183:1:1:2:-2:-3:-1:0:-1:0.0146484:-0.999512:0.166504:0.0625:0.0625:-2.3125
1562062810860189:0:0:-5:-1:-3:-1:-1:-1:0.0107422:-1.01855:0.162109:-0.9375:0.3125:-1.625
1562062810912194:1:0:2:5:-4:0:-1:-2:0.0141602:-1.01221:0.164551:0.4375:-0.125:0.0625
1562062810960199:-1:1:4:1:-3:-1:-1:-1:0.015625:-0.995605:0.172852:-0.5625:-0.125:-0.0625
1562062811009204:-1:2:0:0:4:-3:-2:0:0.0131836:-1.00195:0.164551:-0.75:0:0.25
1562062811060209:0:1:5:-5:4:1:0:1:0.0078125:-1.00586:0.171875:-0.75:-0.3125:0.1875
1562062811116215:0:0:-1:-5:3:0:0:0:0.0102539:-0.988281:0.176758:0.1875:-0.3125:-0.5
1562062811160219:0:1:0:1:0:-1:-2:-1:0.0166016:-0.994141:0.167969:-1.0625:-0.5625:-0.3125
1562062811220225:-4:0:0:3:3:-2:-2:1:0.0166016:-0.999512:0.17627:-1.3125:0:-0.1875
1562062811273231:0:0:-2:-4:1:2:1:1:0.0151367:-1.00732:0.17041:0.8125:0:-0.3125
1562062811319235:1:-3:-3:2:10:-1:-1:-1:0.00976562:-1.00439:0.168945:-0.3125:-0.0625:0.5625
1562062811362239:-1:-1:2:5:1:1:-2:-2:0.0146484:-0.985352:0.173828:-2.875:1.0625:0.5625
1562062811421245:-2:-2:-2:15:-3:-2:0:-2:0.00732422:-1.00928:0.161621:-1.75:0.375:-0.3125
1562062811459249:2:0:1:-4:5:4:1:0:0.00976562:-0.973633:0.162109:-1.125:1.6875:-0.25
1562062811520255:-1:0:0:5:-3:-1:0:1:0.0185547:-1.00293:0.155762:-6.75:1.375:1.75
1562062811563260:-2:-4:-3:-8:-1:-1:-3:-2:0.0078125:-1.02393:0.151367:-3.5:0.75:0.6875
1562062811623266:-2:-2:0:-6:-5:1:0:0:0.00683594:-1.01367:0.147949:-2.875:0:-0.125
1562062811662269:-3:-3:-4:1:-4:0:-1:-1:0.00976562:-0.996094:0.152832:1.5:-0.0625:-0.0625
1562062811722275:-1:2:0:-1:4:2:-1:0:0.00878906:-1.00635:0.151855:-3.25:0.4375:0.25
1562062811760279:-1:-1:-1:-1:6:-1:4:0:0.0161133:-0.995117:0.151367:-4.1875:0.375:0.4375
1562062811819285:2:1:8:21:-9:-2:-3:0:0.00732422:-0.979004:0.153809:-9.25:3.375:1
1562062811871290:-2:-3:-10:-8:-3:-2:-1:0:0.00634766:-1.00977:0.132812:-20.75:3.4375:2.75
1562062811923296:0:-2:-6:-5:3:-1:-1:0:0.00195312:-1.00684:0.118652:-21.6875:5.25:4.75
1562062811962299:-1:-4:-2:-9:-2:-1:1:-1:-0.000488281:-1.04785:0.0966797:-24.3125:6:5.375
1562062812022305:0:-1:5:14:3:1:0:-1:-0.0112305:-1.02539:0.0708008:-22.6875:7.3125:5.8125
1562062812079311:2:1:3:5:1:-1:-2:2:-0.0146484:-1.03564:0.0512695:-11.75:5.875:5.625
1562062812122315:-1:0:2:-1:-5:-3:-1:0:-0.0166016:-0.998047:0.0473633:-13.5625:6.125:5.0625
1562062812165320:-3:-1:-6:-5:-2:0:-1:-3:-0.0273438:-1.02783:0.0332031:-6.8125:3:4.9375
1562062812224326:-2:-1:-1:-2:-6:-5:-2:1:-0.0283203:-1.02051:0.0327148:-3.1875:1.5:3.125
1562062812277331:-2:0:1:-2:2:4:1:-1:-0.0371094:-0.992188:0.0175781:7.3125:-1.0625:2.3125
1562062812322335:-1:-1:-7:-8:-4:-1:0:-1:-0.0415039:-1.00098:0.0302734:1.9375:-2.3125:2.125
1562062812381341:1:1:3:3:2:-6:-3:-2:-0.0327148:-1.02148:0.034668:4.9375:-2.875:1.0625
1562062812422345:0:0:0:5:-2:-1:-1:-2:-0.0371094:-1.01221:0.0439453:3.375:-2.3125:-0.375
1562062812482351:0:1:1:2:4:11:7:1:-0.0366211:-1.03564:0.0512695:7.5625:-4.5:0.0625
1562062812525356:-3:0:0:-2:1:0:-3:-2:-0.0415039:-1.00049:0.0698242:1.1875:-3.0625:0.8125
1562062812577361:-4:-5:-7:-9:1:0:-1:-2:-0.0400391:-1.04688:0.0810547:1.8125:-4.375:2.5
1562062812621365:-1:1:2:4:1:-1:0:0:-0.043457:-0.999512:0.0717773:8:-6:5.3125
1562062812682371:0:-1:2:-4:-5:-1:-3:3:-0.0405273:-1.02344:0.0766602:4.9375:-7.1875:7.375
1562062812722375:-1:1:-1:-5:-5:-5:-1:-2:-0.0517578:-0.994141:0.0751953:6.5625:-9.75:8.8125
1562062812782381:-1:-3:-4:-3:-9:-8:-4:-3:-0.046875:-0.967773:0.0825195:4.875:-11:10.0625
1562062812824386:1:0:3:5:14:19:-2:4:-0.0722656:-0.991211:0.0952148:6.5:-17.125:12.375
1562062812876391:4:6:22:7:-2:4:8:3:-0.0751953:-0.945312:0.119141:9.4375:-23.0625:17
1562062812922395:-2:-2:-4:-5:-7:3:2:-2:-0.101074:-0.967285:0.132812:18.6875:-29.25:22.1875
1562062812977401:-1:-2:-9:-11:-6:-9:-5:0:-0.0922852:-0.9375:0.171387:21:-41.4375:37.0625
1562062813023406:1:3:23:2:-2:-5:-5:2:-0.0703125:-0.95166:0.165039:47.125:-47.875:43.625
1562062813086412:1:1:11:-1:-8:-2:-7:-3:-0.163574:-0.999023:0.197266:37.4375:-50.5:45
1562062813124416:3:1:9:8:-2:0:-2:1:-0.198242:-1.00781:0.228516:34.4375:-49.25:44.5625
1562062813184422:0:1:3:-3:2:2:2:-1:-0.229004:-0.954102:0.267578:28.1875:-49.375:41.5
1562062813225426:-1:-1:1:14:-4:-6:-1:0:-0.217285:-0.947754:0.29248:17.1875:-48.625:38.5
1562062813285432:-2:-2:-1:-7:10:-1:-3:-2:-0.251465:-0.928711:0.32373:19.4375:-50.3125:34.5625
1562062813327436:-1:0:-5:-4:3:11:0:0:-0.279785:-0.947266:0.370605:8.1875:-52.25:32.9375
1562062813386442:-1:-1:0:-1:0:-6:0:-2:-0.256836:-0.888672:0.383301:13.625:-52.1875:31
1562062813439447:-1:-1:0:3:1:3:1:1:-0.287598:-0.922363:0.384766:7.75:-51.5:33.5
1562062813484452:0:0:-4:-4:-1:-5:-1:-1:-0.274414:-0.856445:0.384277:4.8125:-45.6875:34.875
1562062813525456:-1:-2:1:0:2:6:0:-1:-0.315918:-0.875977:0.40918:-2.4375:-46.375:34.9375
1562062813585462:-2:-4:-7:-6:-2:-3:-1:-2:-0.29541:-0.838379:0.405762:-7.375:-43.3125:34.625
1562062813626466:1:2:2:0:10:1:2:-1:-0.335449:-0.851074:0.437012:-8.0625:-44.3125:31.625
1562062813687472:-1:1:1:-5:-3:2:1:-2:-0.308105:-0.839844:0.428711:-15.625:-44.75:25
1562062813740477:-2:0:-1:-1:-3:0:1:-1:-0.32959:-0.845703:0.416016:-13.3125:-44.4375:21.3125
1562062813784482:-2:-3:-12:-10:-2:5:-1:-2:-0.353516:-0.886719:0.460449:-17.9375:-41.1875:20.125
1562062813839487:0:-2:1:0:-3:5:3:3:-0.339844:-0.858887:0.45166:-12.9375:-39.6875:17.75
1562062813885492:1:1:4:0:-1:-4:-4:-1:-0.313965:-0.879883:0.455078:-11.75:-38.125:17.5625
1562062813943498:1:0:0:2:14:5:0:5:-0.309082:-0.851562:0.450684:-17.5625:-38.5:13.125
1562062813987502:1:2:3:-5:-6:3:5:2:-0.287109:-0.877441:0.436523:-18.4375:-32.625:15.3125
1562062814047508:0:0:2:-4:-3:0:0:-10:-0.310547:-0.833984:0.447754:-17.3125:-30.5625:15.0625
1562062814084512:0:-2:-1:0:-8:0:-2:0:-0.307129:-0.903809:0.444824:-19.8125:-22.4375:16.75
1562062814144518:-1:-1:-2:-5:2:2:1:2:-0.41748:-1.16553:0.672852:-9.0625:-30.625:18.8125
1562062814189522:-1:-1:-3:-1:-9:-1:1:-1:-0.276855:-0.780762:0.464844:11:-19.625:7.875
1562062814241527:0:0:-1:0:-15:-3:-1:0:-0.342773:-0.869629:0.443359:7.25:-8.4375:21.8125
1562062814287532:0:0:1:-6:4:2:1:0:-0.32373:-0.852051:0.439941:-13.5625:-8.375:16.8125
1562062814347538:-1:1:-1:-5:-1:5:3:0:-0.338867:-0.839355:0.462402:3.8125:-6.0625:12.3125
1562062814387542:-1:-1:3:13:1:-4:-1:0:-0.303711:-0.84668:0.453125:-8.625:-13.0625:2.625
1562062814447548:1:-2:-2:9:5:4:2:1:-0.336426:-0.861328:0.437988:1.125:-7.8125:-0.1875
1562062814490552:0:0:1:-4:-1:-1:-1:-2:-0.337891:-0.8125:0.419434:-4.0625:-7.1875:-4.625
1562062814541557:-2:0:0:2:-3:2:-1:-1:-0.355957:-0.85791:0.43457:-1.5:-9.125:-6.125
1562062814587562:1:-1:-1:-2:7:-1:-3:0:-0.361816:-0.774902:0.42334:-35.4375:-13.4375:-19.0625
1562062814646568:-1:-1:-4:0:-2:0:1:0:-0.287598:-0.939453:0.415039:-64.4375:-16.625:-4.9375
1562062814687572:1:-1:-1:-3:0:-2:-2:-2:-0.279297:-0.96582:0.412598:-3.4375:-6.6875:6.1875
1562062814747578:2:0:1:-2:4:1:2:-1:-0.282715:-0.922363:0.365723:15.1875:-2.25:2.25
1562062814789582:-2:0:0:-4:1:0:0:0:-0.328613:-0.87793:0.395996:35.125:5.6875:0
1562062814827586:-2:-1:-2:-1:-1:1:-1:0:-0.294434:-0.838379:0.426758:35.0625:3.6875:8.5
1562062814887592:0:-2:-2:6:6:1:-2:-1:-0.314453:-0.817871:0.443848:26.8125:0.6875:3.6875
1562062814946598:-1:-1:-4:0:-1:-3:-1:0:-0.333008:-0.812012:0.463379:5.625:-1.5:5.3125
1562062814999603:1:-1:3:8:-1:-4:-1:0:-0.337891:-0.864746:0.455078:12.75:1.5625:0.75
1562062815044608:1:-1:-1:0:-4:-4:-3:-2:-0.324707:-0.796387:0.476074:13.1875:0.4375:1.5
1562062815089612:0:1:1:-1:4:0:0:1:-0.297363:-0.815918:0.490723:6.8125:-4.4375:0.8125
1562062815148618:-1:1:2:-2:1:0:0:0:-0.357422:-0.819336:0.506348:0.9375:-5.125:-5.25
1562062815202623:-2:0:-3:3:7:-1:-1:-2:-0.312988:-0.821777:0.487305:-3:-5.375:0.6875
1562062815249628:0:-1:-2:-12:-3:-2:0:-2:-0.288086:-0.831543:0.492676:-14.375:-4.75:0.3125
1562062815292632:0:-1:-2:-4:0:-2:-1:-1:-0.323242:-0.836914:0.499023:19.0625:2.75:-0.625
1562062815344638:-2:0:1:1:-10:-6:-4:-3:-0.315918:-0.811035:0.485352:0.375:1.375:-1.0625
1562062815389642:-2:-3:-8:7:-4:3:0:-2:-0.314453:-0.890625:0.475586:16.9375:2.1875:-2.8125
1562062815449648:1:-1:0:3:1:-1:0:0:-0.329102:-0.844238:0.495117:46.875:6.875:-7.75
1562062815502653:-1:0:0:-4:2:0:-1:-1:-0.334961:-0.754883:0.540039:44.0625:4.875:-1.6875
1562062815550658:0:0:2:3:-1:-3:0:0:-0.304688:-0.772461:0.555176:25.4375:0.5625:-0.1875
1562062815592662:0:-2:-2:3:9:-1:-2:-2:-0.325195:-0.728516:0.58252:21.75:0.75:3.5625
1562062815652668:0:0:1:6:-9:-1:0:1:-0.3125:-0.697266:0.587891:-0.375:-3.3125:4.75
1562062815704674:-2:-1:-1:5:3:-1:0:-2:-0.29541:-0.731934:0.609375:-31.875:-10.6875:11.125
1562062815749678:0:-1:-3:-4:3:5:1:0:-0.300293:-0.919922:0.541016:-47.75:-6.5625:2.625
1562062815809684:-2:-1:2:0:-2:-4:-1:0:-0.315918:-0.799316:0.541992:-17.0625:-3.375:-0.25
1562062815849688:0:0:-3:0:6:4:2:0:-0.312988:-0.839355:0.506836:-16.125:1.75:-0.9375
1562062815906694:-1:-4:-4:4:0:-3:1:-1:-0.335449:-0.813477:0.50293:1.8125:5.5625:-0.8125
1562062815959699:1:-1:-1:-2:-2:-2:-2:-3:-0.329102:-0.818359:0.496582:-4.625:2.75:0.25
1562062816004704:-2:0:0:1:3:2:2:1:-0.305176:-0.839844:0.523438:-2.375:-2.4375:1.5
1562062816049708:-1:0:-1:-4:2:0:0:0:-0.338867:-0.839355:0.511719:46.3125:6.1875:-7
1562062816110714:1:2:4:-8:5:-2:-1:0:-0.357422:-0.717773:0.524414:51.6875:7.25:-3.8125
1562062816155719:-1:0:-1:7:-3:-2:-2:-3:-0.347656:-0.722168:0.574707:-1.3125:-1:5.5
1562062816207724:0:-3:-2:7:-2:-4:0:0:-0.316895:-0.757324:0.57666:-37.625:-8.4375:10.6875
1562062816252728:1:0:1:-1:-1:0:-1:-1:-0.342285:-0.778809:0.541992:-16.625:-1.75:5.75
1562062816312734:1:-1:-1:-4:0:0:1:1:-0.322754:-0.741699:0.539551:-32.8125:-3.9375:5.4375
1562062816365740:3:3:2:3:4:2:1:3:-0.291504:-0.89209:0.494629:-15.125:5:5.0625
1562062816412744:-1:-1:-6:-7:-2:0:0:0:-0.333008:-0.789062:0.494141:4.5625:8.8125:2.625
1562062816454749:-1:-2:-9:-4:0:5:-1:0:-0.329102:-0.834473:0.489258:-5.5625:7.9375:3.125
1562062816506754:-2:-2:-1:1:-2:-1:-1:0:-0.33252:-0.820801:0.495605:-0.4375:8.5625:3
1562062816551758:-1:-1:6:7:0:0:1:0:-0.345215:-0.816406:0.476074:-5.5625:5.625:2.4375
1562062816612764:0:-1:1:7:0:-3:-1:-1:-0.35498:-0.833984:0.477539:0.5625:7.125:2.1875
1562062816663770:-1:2:2:0:4:1:1:1:-0.370605:-0.824707:0.473633:-4.875:6.5:3.25
1562062816712774:-2:-2:0:0:-5:0:0:-1:-0.385254:-0.814941:0.47998:-0.9375:8.0625:5.5625
1562062816762779:-2:0:1:-1:5:-3:-1:1:-0.39502:-0.815918:0.468262:-2.5:8:6.125
1562062816815785:0:-2:-1:-2:-2:0:-3:-1:-0.411133:-0.810059:0.458496:-2.6875:9:6.5
1562062816866790:3:1:4:2:1:-3:-2:0:-0.40332:-0.813965:0.450195:-2:10:7.625
1562062816912794:-3:-1:-1:-4:1:0:1:-2:-0.397949:-0.799805:0.445801:0.1875:10.5625:8.1875
1562062816964800:-1:0:1:2:1:1:1:-2:-0.37207:-0.819336:0.421875:3.375:12.75:7.125
1562062817018805:0:-2:-3:1:-2:-2:-2:0:-0.402832:-0.791992:0.44043:7.75:11.9375:5.1875
1562062817055809:-2:-2:-2:-3:2:-3:-3:-1:-0.434082:-0.794434:0.452148:-1.375:4.875:3.1875
1562062817115815:0:1:1:1:0:-1:1:-1:-0.471191:-0.753418:0.46582:4.5:-1.4375:-1.125
1562062817166820:1:0:1:-4:-1:6:-1:0:-0.478027:-0.790039:0.484375:-7.5:-6.75:0.3125
1562062817215825:-1:-1:-1:2:3:-1:-3:0:-0.496094:-0.788574:0.472168:-0.75:-3.375:2.875
1562062817258829:-1:-3:-4:-3:-4:-2:-1:-1:-0.453613:-0.792969:0.467285:-5.6875:-0.1875:4.625
1562062817317835:-1:-3:-6:4:-2:1:-1:0:-0.4375:-0.787598:0.463379:-2.3125:6.25:5.3125
1562062817368840:2:0:0:-4:2:0:1:1:-0.429688:-0.786621:0.449707:-1:6.75:5.1875
1562062817415845:-2:0:-1:0:-9:-4:0:-1:-0.427734:-0.793457:0.419434:0.6875:5.6875:1.1875
1562062817467850:0:-1:-1:-6:-10:-4:-2:0:-0.425781:-0.799805:0.423828:1.6875:3.375:-0.8125
1562062817515855:0:0:0:-6:4:-1:-1:1:-0.438965:-0.797852:0.437012:2.375:1.5:-2.0625
1562062817572860:-2:-2:-1:0:1:-4:-2:-1:-0.450684:-0.792969:0.438965:1.9375:0.375:-0.9375
1562062817618865:0:-1:-2:-3:0:-2:-2:-2:-0.473145:-0.783203:0.452637:-0.5625:-1.4375:0.6875
1562062817669870:0:-4:-3:-4:0:-2:0:1:-0.468262:-0.778809:0.458008:-1.0625:-2:0.75
1562062817714875:1:1:-1:-4:-3:0:-1:0:-0.461914:-0.791016:0.458496:-1.125:-1.1875:0.125
1562062817773881:-3:-2:-4:-4:4:1:-1:-1:-0.459473:-0.790039:0.459473:0.125:0.5625:-0.25
1562062817820885:0:0:1:0:-2:-3:-3:-1:-0.454102:-0.791504:0.457031:-0.9375:1.5625:0.3125
1562062817872890:-3:0:-1:0:-3:-2:-3:1:-0.446777:-0.78418:0.444824:-0.4375:2.125:-0.4375
1562062817916895:0:0:0:0:2:-2:1:-2:-0.449219:-0.791016:0.439941:-1.8125:1.0625:0.1875
1562062817968900:1:0:0:-4:-2:0:0:-1:-0.450684:-0.791992:0.432617:0.125:1.0625:-0.1875
1562062818017905:0:-1:-3:-3:-7:-2:-1:0:-0.447754:-0.791992:0.441895:0.375:-0.5625:-1.125
1562062818076911:-3:-1:-1:-3:2:-1:-3:-2:-0.456543:-0.790527:0.438477:0.875:-1.25:-1.3125
1562062818120915:-1:1:3:6:16:-4:-1:-2:-0.45752:-0.783691:0.451172:1.125:-2:-0.75
1562062818172920:0:-1:1:7:-7:0:-1:1:-0.456543:-0.789062:0.451172:0:-1.4375:-0.9375
1562062818217925:-1:0:0:-3:7:1:0:0:-0.456543:-0.78418:0.457031:0.6875:-0.25:-0.5625
1562062818268930:0:1:-1:-2:3:3:0:-1:-0.456543:-0.78418:0.450684:-0.3125:0.375:-0.5
1562062818317935:-1:-1:-3:-2:-2:-1:-1:-2:-0.452148:-0.791504:0.450195:-0.3125:0.3125:-0.6875
1562062818377941:1:1:3:2:8:1:1:0:-0.446777:-0.791016:0.439453:-0.4375:-0.1875:-0.25
1562062818420945:-1:-1:-3:-6:-7:0:-2:-2:-0.447754:-0.789062:0.446289:-0.375:-1.125:0.0625
1562062818479951:-1:-1:-1:4:-9:-1:-2:0:-0.446289:-0.790527:0.455566:0:-1.4375:0.1875
1562062818531956:-1:-2:-1:2:-2:-2:2:-1:-0.450195:-0.786621:0.445801:-0.375:-1.5:-0.25
1562062818577961:0:-1:-1:1:-6:-3:0:-1:-0.444336:-0.788574:0.454102:0.375:-2.375:0.25
1562062818629966:-2:-1:1:0:-3:0:-1:1:-0.455078:-0.791504:0.454102:-0.125:-4.3125:1.0625
1562062818677971:-2:-1:0:9:-4:-4:-2:-1:-0.459961:-0.779785:0.450195:-1.375:-6.375:0.875
1562062818734977:1:1:-1:-2:4:0:-2:-2:-0.456055:-0.788574:0.458496:-1.9375:-6.4375:0.4375
1562062818783982:-2:0:0:1:6:2:2:2:-0.437012:-0.789062:0.458984:-2.5625:-4.875:-0.9375
1562062818831986:1:0:0:0:1:-1:0:-1:-0.428223:-0.791016:0.462402:0.375:-2.1875:-2.0625
1562062818880991:-2:2:2:0:3:2:0:-1:-0.431641:-0.794434:0.462402:-0.4375:-0.875:-2
1562062818924996:-1:0:-1:-9:-13:-5:-2:-1:-0.445312:-0.791992:0.461914:0.8125:-0.125:-0.9375
1562062818984002:1:1:1:2:2:1:-1:0:-0.438477:-0.791016:0.459961:-0.8125:-0.9375:-0.9375
1562062819035007:-1:-2:-2:0:2:1:-1:0:-0.442383:-0.785645:0.458984:-0.125:-1.5625:-1.1875
1562062819083011:-1:0:2:1:-1:-5:-2:-1:-0.429199:-0.79834:0.458008:-1.8125:-2.4375:-2.0625
1562062819132016:0:-1:-1:-3:0:1:1:0:-0.429688:-0.785645:0.461914:0.9375:-1.9375:-1.875
1562062819184022:-1:1:-1:-1:3:-1:-2:0:-0.427734:-0.800781:0.473633:0.4375:-1.6875:-1.4375
1562062819232026:0:0:-3:-4:3:3:-1:-1:-0.429199:-0.79248:0.467773:0:-1.0625:-0.8125
1562062819285032:-1:-1:-1:1:1:2:-1:0:-0.427734:-0.794434:0.464844:-0.125:-0.6875:-0.4375
1562062819334037:-1:-1:-1:-7:2:-2:-1:-2:-0.429688:-0.789062:0.467773:0.3125:-0.375:-1.0625
1562062819383041:0:-2:-4:-1:8:-2:-1:-1:-0.431152:-0.79248:0.461914:-3.125:-0.6875:-0.875
1562062819432046:-2:-1:-4:-1:3:0:-1:1:-0.431152:-0.782715:0.461426:-5.9375:-1.8125:-1.25
1562062819488052:1:-2:0:-3:-1:0:-3:0:-0.424805:-0.809082:0.450684:-2.125:-2.1875:-1.5625
1562062819537057:1:0:1:1:3:-4:0:0:-0.422363:-0.793945:0.454102:0.4375:-3.6875:-0.9375
1562062819586062:-1:-1:0:-1:8:-1:-3:-2:-0.428711:-0.804688:0.455078:-0.375:-7.0625:-0.375
1562062819634067:0:0:-2:-3:0:2:0:0:-0.426758:-0.786133:0.455566:-1.6875:-9.6875:-0.0625
1562062819683071:1:0:0:-3:-1:4:2:-1:-0.43457:-0.79248:0.446777:-3.4375:-15.6875:-1.0625
1562062819732076:-2:0:-1:-9:-3:-1:0:1:-0.430664:-0.785645:0.451172:-6.5625:-20.0625:-4.4375
1562062819792082:-2:0:-2:-6:-4:-4:-1:-1:-0.414062:-0.773438:0.474121:-4.6875:-21.9375:-6.125
1562062819838087:0:0:4:7:-6:-2:-2:-1:-0.384277:-0.801758:0.47998:-6.875:-22.625:-9.5625
1562062819885092:-1:-2:-2:1:2:-1:-1:0:-0.350586:-0.791992:0.480957:-3.6875:-20.875:-15.3125
1562062819946098:1:-3:-1:-5:-14:-1:-2:0:-0.311523:-0.80957:0.487305:-3.625:-20.9375:-24.4375
1562062819994103:0:0:-2:-1:14:1:0:0:-0.291016:-0.82373:0.494629:-3.9375:-20.8125:-29.3125
1562062820046108:-2:1:0:-1:3:0:-2:-3:-0.254395:-0.84082:0.484863:-3.625:-21.375:-33.0625
1562062820088112:0:0:-3:1:2:0:0:0:-0.227051:-0.86084:0.481445:-3.75:-22.3125:-32.4375
1562062820137117:0:-1:-2:0:-1:-2:1:1:-0.19873:-0.863281:0.48877:-0.9375:-20.375:-31.125
1562062820186122:-1:0:-1:-4:7:4:2:-1:-0.168457:-0.85498:0.503418:-1.5:-20.25:-29.6875
1562062820245128:-1:-1:3:3:9:2:-2:-1:-0.126953:-0.871582:0.491699:4.3125:-14.9375:-28.125
1562062820294133:-1:-1:-2:2:2:0:-4:-10:-0.104492:-0.850098:0.501953:-0.875:-16.375:-27.5
1562062820346138:-1:0:-3:-4:5:-3:2:2:-0.0712891:-0.887207:0.506836:3.75:-14.8125:-26.3125
1562062820387142:-2:0:-1:1:-5:-4:0:-3:-0.0634766:-0.876953:0.493652:2.1875:-13.875:-24.8125
1562062820438147:-1:-2:2:3:2:-1:-1:-1:-0.019043:-0.894043:0.506348:-1.1875:-14.125:-21.0625
1562062820485152:-2:0:2:-5:-2:0:0:1:-0.0161133:-0.882324:0.506348:1.25:-11.8125:-17.625
1562062820546158:-1:0:0:-3:5:1:1:1:0.0078125:-0.893555:0.516113:0.25:-8.625:-10.875
1562062820594163:0:-2:-9:-2:5:1:-2:-2:0.0136719:-0.881836:0.515625:1.1875:-5.625:-6.875
1562062820647168:-3:-1:-3:-2:-6:-2:-1:2:0.0239258:-0.888672:0.52002:-1.5:-1:-1.5
1562062820688172:0:1:1:5:3:7:3:2:0.0244141:-0.883301:0.520996:-0.8125:1.4375:2.0625
1562062820747178:0:0:-1:-1:1:0:0:-1:0.0112305:-0.883301:0.514648:-0.125:5.8125:7.1875
1562062820797183:-2:-3:-2:6:-8:-3:-3:-2:0.00146484:-0.869629:0.513184:-3.75:7.125:9.9375
1562062820849188:0:0:2:-1:-6:0:-3:-8:-0.012207:-0.881348:0.511719:0.3125:10.75:12.6875
1562062820887192:0:0:-2:1:11:7:2:3:-0.0219727:-0.875488:0.505859:-3.4375:11.3125:14.5625
1562062820940197:0:-1:-1:-3:-3:-3:-1:0:-0.0415039:-0.887695:0.500977:-1.125:13.125:18.8125
1562062821000203:0:-1:-3:-6:3:-1:-3:0:-0.050293:-0.89502:0.505859:-2.9375:14.375:22.375
1562062821048208:1:2:4:4:-8:1:1:0:-0.0844727:-0.879395:0.508301:-1:16.75:28.125
1562062821096213:-1:-2:-4:-2:0:-2:-4:-3:-0.110352:-0.878906:0.495605:0.0625:16.8125:31.0625
1562062821149218:1:1:1:3:0:-3:-1:-1:-0.152344:-0.875488:0.500488:0.3125:18.75:33.4375
1562062821204224:-1:-1:-3:-1:-6:-3:-3:0:-0.186035:-0.859863:0.504395:1.5:20.8125:36.1875
1562062821247228:-1:0:1:-2:2:0:-1:-1:-0.23291:-0.857422:0.489746:0.8125:22.125:38.75
1562062821300233:-2:-1:-4:1:-1:-3:-4:-2:-0.274902:-0.837891:0.481445:3.4375:24.5:38.9375
1562062821347238:1:0:0:0:-2:1:0:0:-0.319336:-0.814453:0.489258:3.4375:24.75:37.5
1562062821397243:-2:0:1:8:0:1:-2:-1:-0.360352:-0.824219:0.477539:4.875:25.9375:37.1875
1562062821448248:0:0:4:7:-11:3:1:-1:-0.402832:-0.794434:0.476074:5.125:25.75:34.8125
1562062821487252:0:-1:-1:-3:3:-4:-3:2:-0.430176:-0.780273:0.467285:6.3125:24.625:33.3125
1562062821550258:-2:-1:-2:0:1:-1:-2:0:-0.460449:-0.765137:0.458496:10.625:24.375:28
1562062821599263:0:3:1:-1:-9:1:1:0:-0.477539:-0.742188:0.464355:9.3125:22.375:24.9375
1562062821651268:0:-1:0:-1:-4:-1:-1:1:-0.506836:-0.723633:0.455566:10.9375:20.875:19
1562062821708274:-1:-2:-1:-10:-9:-2:-1:-2:-0.534668:-0.717773:0.457031:8.375:17.8125:13.5625
1562062821749278:-1:-4:-7:5:8:3:-1:-3:-0.557617:-0.707031:0.443359:7.9375:16.375:11.3125
1562062821803283:-2:0:-3:-11:-4:0:-3:-2:-0.568848:-0.694824:0.450195:3.0625:11.375:9.5625
1562062821847288:0:1:1:-6:2:-3:-2:0:-0.585938:-0.695801:0.437988:3.3125:7.4375:7.9375
1562062821907294:-2:-2:1:2:2:-7:-2:-2:-0.65332:-0.685547:0.425781:-8.875:-3.9375:9.0625
1562062821950298:-2:-4:-7:0:9:-5:-4:-2:-0.633301:-0.663086:0.425781:-11:-13.3125:17.125
1562062822011304:0:0:11:10:11:0:-2:3:-0.617188:-0.683594:0.412598:-15.25:-16.0625:22.1875
1562062822049308:-1:-2:-6:-8:-3:-5:-1:-3:-0.683105:-0.704102:0.399414:-26.5:-18.3125:36.875
1562062822110314:-2:0:-8:-11:-5:1:0:1:-0.649414:-0.742676:0.451172:-31:-28.1875:31.25
1562062822162319:2:0:0:-3:1:-2:0:-2:-0.615234:-0.76123:0.467773:-23.75:-42.75:25.8125
1562062822211324:-2:0:1:8:-9:-5:-4:-3:-0.561523:-0.71875:0.448242:-12.9375:-48:18.75
1562062822260329:0:-3:-20:-7:12:12:3:1:-0.567383:-0.696289:0.482422:-3.4375:-52.8125:18.5
1562062822311334:-1:1:3:16:-10:-1:-4:0:-0.499512:-0.686523:0.509277:-3.5:-55.875:7.5625
1562062822349338:-1:1:-1:7:1:-5:1:-1:-0.440918:-0.701172:0.541504:10.125:-60.25:15.1875
1562062822410344:1:2:4:-3:3:-4:0:0:-0.465332:-0.654297:0.57373:-0.3125:-62.5625:-12.625
1562062822463349:1:1:9:15:14:3:-7:-1:-0.461914:-0.638672:0.576172:-3.625:-59.5:-16.8125
1562062822510354:-1:-2:-9:-5:-5:-1:1:8:-0.38623:-0.655762:0.597168:-10.4375:-52.6875:-17.875
1562062822560359:-4:-2:-3:-2:-6:0:18:3:-0.375488:-0.68457:0.598633:-6.5625:-37.6875:-12.75
1562062822612364:1:1:4:1:-10:-3:-12:-4:-0.356445:-0.722656:0.624023:-12.6875:-29.5625:-8.25
1562062822665370:0:-1:2:-5:17:-6:-8:-7:-0.345703:-0.70752:0.631348:0.9375:-19.4375:-4.875
1562062822709374:-3:0:-1:0:13:-4:-6:-4:-0.357422:-0.679688:0.646484:3.375:-9:-2.875
1562062822763379:0:1:0:-4:1:5:2:3:-0.34668:-0.706055:0.657227:2.75:-5.4375:-5.25
1562062822813384:-1:-2:-2:-1:-2:-5:-3:-1:-0.355957:-0.669434:0.664062:4.75:-2.875:-5.5625
1562062822852388:-2:-3:-4:-1:-1:-4:-4:-1:-0.336426:-0.688965:0.658691:2.375:-0.4375:-7.5
1562062822911394:0:2:1:2:7:1:2:-1:-0.324707:-0.669922:0.671875:8.9375:8.125:-13.0625
1562062822965400:-2:-1:6:0:-1:-2:0:-2:-0.305176:-0.70166:0.682617:9.5:17.0625:-20.375
1562062823012404:-1:2:5:2:2:-2:3:2:-0.314453:-0.674316:0.69043:19.4375:24.5625:-29.125
1562062823062409:-1:1:-1:1:3:-1:1:0:-0.303223:-0.683105:0.696289:7.625:31.125:-47
1562062823113414:2:1:1:0:6:1:-1:0:-0.284668:-0.719727:0.708008:16:36.625:-52.8125
1562062823169420:-1:-3:-5:6:-2:5:9:5:-0.299316:-0.697754:0.687012:18.625:41.3125:-60.5
1562062823211424:-1:2:10:2:-7:1:1:-2:-0.271973:-0.743652:0.674316:25:45.625:-61.625
1562062823272430:0:0:-2:-2:2:0:3:3:-0.273926:-0.719238:0.666992:24.875:49.6875:-61.375
1562062823313434:0:-3:-9:-1:1:-1:6:1:-0.271973:-0.72998:0.652832:29.25:46.625:-57.125
1562062823372440:0:1:0:-2:3:2:-1:-2:-0.254395:-0.743652:0.644043:14:44.0625:-51.875
1562062823422445:0:-3:-3:-3:-13:-2:2:4:-0.26709:-0.722168:0.639648:20.5:41.1875:-46.625
1562062823475451:2:-1:3:1:12:3:3:3:-0.260254:-0.741211:0.650879:17.1875:36.4375:-38.4375
1562062823512454:1:0:2:-8:4:4:1:4:-0.263672:-0.70752:0.65332:22.8125:30.5:-37.8125
1562062823571460:-4:-2:-2:-4:-1:-4:-4:-2:-0.250488:-0.725586:0.685059:26.875:25.875:-34.5625
1562062823626466:-1:0:1:7:24:0:-1:0:-0.250977:-0.671875:0.704102:36.5625:28.8125:-36.3125
1562062823676471:0:-2:-3:-2:-13:-3:-2:-3:-0.223145:-0.682617:0.725586:15.5:23.1875:-35
1562062823715475:0:0:-2:1:-4:-4:-2:-2:-0.229004:-0.679688:0.719238:17.75:28.125:-33.625
1562062823774481:0:3:1:1:-6:-3:0:-1:-0.213379:-0.650879:0.712402:17.6875:29.8125:-35.1875
1562062823827486:-2:0:4:-2:3:1:4:2:-0.205078:-0.652832:0.722656:13.5625:29.875:-35.375
1562062823871490:1:1:3:3:-1:-1:-1:2:-0.208008:-0.624512:0.695312:7.1875:31.25:-34.875
1562062823924496:0:-1:8:5:-2:-2:1:0:-0.205566:-0.628418:0.679199:3:31.9375:-34.0625
1562062823975501:-1:-3:-5:-3:14:3:-1:-3:-0.217285:-0.666016:0.683105:-5.9375:32.75:-34
1562062824030506:-3:-3:-12:-7:-1:0:-2:-1:-0.225586:-0.644043:0.685547:-4.125:32.25:-34.5
1562062824074511:-1:-2:1:-1:-11:-8:-5:-1:-0.214844:-0.682129:0.662109:-10.0625:34.875:-36.4375
1562062824128516:0:-2:-1:5:0:-1:-2:1:-0.23877:-0.694336:0.681152:-21.9375:40.8125:-36.375
1562062824175521:-2:-3:-3:2:-1:-1:-2:-5:-0.244629:-0.75293:0.67627:-19.5:41.0625:-39
1562062824225526:1:5:13:7:-2:1:0:1:-0.227051:-0.747559:0.654297:-13.1875:41.3125:-42.6875
1562062824275531:1:0:-2:-7:0:-1:-1:2:-0.214355:-0.789551:0.633301:-18.875:38.6875:-40.8125
1562062824330536:-1:0:8:5:-5:-2:-2:1:-0.207031:-0.765137:0.597168:-11.25:36.75:-38.4375
1562062824375541:2:2:8:5:3:1:0:0:-0.198242:-0.802734:0.578125:-15.75:35.3125:-33.125
1562062824434547:1:2:2:2:-1:1:0:5:-0.207031:-0.822754:0.550293:-13.625:33.3125:-29.25
1562062824475551:-1:1:3:1:-2:-2:-1:-1:-0.210938:-0.819824:0.539062:-14.9375:30.1875:-25.125
1562062824536557:1:1:7:2:-7:0:0:3:-0.218262:-0.837402:0.51123:-13.3125:24.5625:-21.375
1562062824577561:-3:-2:-4:-4:-3:-3:2:3:-0.208008:-0.840332:0.506348:-12.6875:17.875:-15.625
1562062824630566:-3:-5:-7:-2:-9:-5:-2:2:-0.214844:-0.85791:0.48291:-10.4375:6.9375:-2.375
1562062824674571:2:0:2:0:0:0:2:7:-0.214355:-0.882812:0.462891:-9.0625:-0.1875:6.375
1562062824734577:0:0:0:-4:-4:1:5:2:-0.233398:-0.87793:0.471191:-4:-12.9375:17.875
1562062824778581:-3:-4:-8:-4:3:-6:-7:-4:-0.236816:-0.881836:0.476074:-1.875:-21.75:27.875
1562062824833586:-1:-1:5:-5:-9:-1:-2:2:-0.22998:-0.851074:0.471191:-1.375:-33.3125:41.8125
1562062824877591:-3:-3:-4:-2:-11:-1:-1:-2:-0.246582:-0.85498:0.481934:-2.1875:-40.125:49.75
1562062824930596:-1:1:7:6:-1:1:-2:0:-0.274414:-0.84375:0.499512:-0.375:-47.5625:58.1875
1562062824977601:1:3:10:5:2:-1:1:4:-0.300781:-0.82959:0.522461:1.625:-50.625:60.75
1562062825026606:0:0:2:-1:-10:-2:0:0:-0.317871:-0.801758:0.547852:3.25:-52.75:61.5625
1562062825078611:-2:-2:-5:-7:-11:-4:-3:-12:-0.328125:-0.789551:0.568848:2.875:-53.9375:61.375
1562062825134617:-1:1:5:11:6:5:2:2:-0.323242:-0.759277:0.597168:3.1875:-54.3125:61.6875
1562062825177621:-1:4:10:4:-13:-3:0:0:-0.324707:-0.739258:0.612305:4.25:-55.125:60.0625
1562062825237627:-1:-1:-4:-10:2:-4:-2:-1:-0.32959:-0.707031:0.626465:4.0625:-57.125:58.6875
1562062825277631:-1:-4:-14:-7:8:3:1:1:-0.32959:-0.688477:0.63623:4.9375:-58.5625:57.375
1562062825338637:-2:0:8:3:-8:-2:-6:-8:-0.341797:-0.65918:0.639648:4.625:-61.3125:55.3125
1562062825387642:1:2:2:2:19:1:2:3:-0.335449:-0.641602:0.67041:-3.375:-61.5625:56.3125
1562062825439647:-1:0:-6:-1:-6:1:2:2:-0.341797:-0.627441:0.695312:-4.0625:-59.125:57.5625
1562062825477651:-1:0:3:1:-18:-5:0:0:-0.339355:-0.63916:0.717285:-10.4375:-59.5625:59.5
1562062825536657:0:-1:-2:-2:12:0:0:-3:-0.323242:-0.598145:0.714355:-9.5625:-56.5:63.875
1562062825593662:-1:-4:-8:-3:21:11:4:0:-0.321289:-0.590332:0.74707:-13.1875:-50.8125:65.8125
1562062825637667:0:-2:-5:-14:-7:-4:0:-1:-0.307129:-0.586914:0.761719:-12.5625:-48.4375:65.875
1562062825679671:1:-1:0:8:2:-1:0:-2:-0.31543:-0.572754:0.770996:-11.5:-42.5:56.6875
1562062825739677:-2:-2:-3:-12:-9:3:0:2:-0.304688:-0.54834:0.763672:-9.8125:-36.0625:49.0625
1562062825791682:1:0:-3:-7:-20:-4:-5:-2:-0.288086:-0.537598:0.746582:-12.375:-32.125:38.25
1562062825837687:1:1:2:-1:-6:2:3:0:-0.306641:-0.562988:0.757324:-14.5:-31.8125:34.125
1562062825894693:-2:1:7:7:-4:0:1:-3:-0.32959:-0.559082:0.805664:-8.1875:-23.9375:32.625
1562062825938697:-2:-3:-1:3:18:-2:1:-4:-0.358887:-0.530273:0.819824:-6.0625:-20.0625:25.25
1562062825979701:-1:-2:3:1:1:2:6:2:-0.324707:-0.548828:0.851562:-1.0625:-10.9375:12.5625
1562062826040707:-1:1:5:4:22:-1:1:-1:-0.310547:-0.530273:0.844238:9.875:0.3125:5.3125
1562062826092712:-2:-3:0:5:-5:-2:-4:-8:-0.317871:-0.505371:0.800781:9.625:15.75:-5.125
1562062826145718:0:-4:-5:3:2:2:2:1:-0.308594:-0.530273:0.779297:12.25:28.375:-5.6875
1562062826177721:-4:0:-2:4:-17:-5:-4:-4:-0.309082:-0.544922:0.754883:11.1875:44.0625:2.125
1562062826238727:3:2:-2:0:-2:3:2:3:-0.334961:-0.526367:0.734863:17.4375:59.875:9.9375
1562062826294733:-1:3:4:-3:-9:-1:-1:0:-0.376953:-0.485352:0.681641:7.9375:77:17.3125
1562062826339737:1:1:3:-5:2:4:3:6:-0.47168:-0.462402:0.61377:13.1875:98.1875:25.6875
1562062826380741:-1:0:-4:-6:6:5:3:-1:-0.559082:-0.433594:0.588379:6.8125:111.625:35
1562062826440747:-2:-1:-4:1:6:3:1:1:-0.661621:-0.425293:0.552734:5.875:117:41.875
1562062826497753:1:3:8:-1:5:1:0:-9:-0.779785:-0.385742:0.472168:0.875:122.438:47.125
1562062826541757:-1:-4:-6:4:-8:-3:0:0:-0.84668:-0.380371:0.456055:5.875:114.438:44.0625
1562062826594763:-1:0:0:1:-7:-2:1:-3:-0.993164:-0.364746:0.34082:8.375:95:30.875
1562062826639767:-2:-2:3:2:7:0:0:-2:-0.864746:-0.380859:0.541504:11.25:100.5:34.4375
1562062826699773:-1:-2:-3:4:5:-2:-9:-4:-0.938477:-0.240234:0.209961:13.25:104.25:35.0625
1562062826739777:-1:0:3:-6:17:4:-1:1:-1.01709:-0.262695:0.191895:15.875:98.9375:42.375
1562062826800783:0:-2:1:-3:-2:1:0:4:-1.01562:-0.248047:0.081543:14.6875:79.9375:36
1562062826842787:-1:-3:-7:-4:-6:-5:8:-4:-1.02002:-0.198242:-0.00976562:35.5:71:32.1875
1562062826902793:0:-1:6:7:2:-1:9:5:-1.01709:-0.143066:-0.0644531:30.375:62.5:28.6875
1562062826939797:0:-2:0:-1:4:-2:-5:1:-1.01807:-0.123047:-0.117188:25.875:44.6875:18.375
1562062826999803:0:3:20:16:-9:-3:-8:-1:-1.05615:-0.0712891:-0.154297:25.3125:34.25:11.9375
1562062827040807:-1:-7:-17:-7:-16:3:2:1:-1.06641:-0.0678711:-0.180176:19.375:22.0625:6.0625
1562062827100813:1:4:3:-2:3:0:0:5:-1.08105:-0.0449219:-0.198242:7.5:4.625:-0.875
1562062827142817:2:-2:2:-4:-15:-4:8:1:-1.05078:-0.0791016:-0.180176:0.9375:-6.6875:-5.1875
1562062827201823:1:-3:-3:-1:6:-2:-9:2:-1.03516:-0.081543:-0.162598:-4.5:-10.0625:-8.375
1562062827254829:-3:-3:-7:-10:-7:-2:-6:-1:-1.01416:-0.131348:-0.127441:-6.375:-11.3125:-9.75
1562062827299833:0:-4:5:-2:3:0:5:-2:-1.00977:-0.127441:-0.127441:-9.4375:-12.3125:-11.1875
1562062827360839:1:5:11:2:3:4:-8:-7:-1.03076:-0.163574:-0.0869141:-11.5625:-23.0625:-13.375
1562062827404844:2:7:18:5:10:-1:1:2:-1.0542:-0.144531:-0.097168:-8.25:-31.5:-17.25
1562062827456849:1:-2:-9:-3:-7:-1:-1:1:-1.05029:-0.174316:-0.0546875:-18:-56:-28.5
1562062827505854:-2:-2:-1:-4:4:-1:-6:0:-1.06299:-0.159668:-0.00537109:-13.75:-75.0625:-41.5
1562062827542857:-1:-2:-8:6:2:2:-5:-6:-0.984863:-0.268066:0.0380859:-25.6875:-86.75:-47.875
1562062827601863:1:2:11:0:-17:1:11:4:-0.977051:-0.240723:0.125:-8.3125:-96.5:-56.9375
1562062827644868:0:-2:1:0:7:4:1:-2:-0.89209:-0.350098:0.179688:-23.1875:-102.5:-61.75
1562062827704874:1:1:-2:-3:-1:-1:-11:-5:-0.878418:-0.38623:0.252441:-6.4375:-100.875:-61.5625
1562062827757879:-3:-1:-2:-10:12:-3:-3:-1:-0.788574:-0.440918:0.325684:-20.8125:-105.75:-66
1562062827802883:-1:0:-1:-6:-14:-4:-2:-3:-0.724121:-0.505859:0.419922:-3.375:-103.625:-67.6875
1562062827853888:-5:-8:-18:-13:-16:-4:-3:-2:-0.667969:-0.539062:0.472656:-13.5:-104.25:-69.8125
1562062827902893:1:-2:4:1:-11:-3:5:-4:-0.575684:-0.581543:0.53125:-0.1875:-97.5:-68.75
1562062827962899:-3:-5:-6:3:-13:-4:-7:-5:-0.504395:-0.608887:0.578613:-1.875:-93.25:-67.6875
1562062828004904:-1:-2:-5:-4:0:-4:3:2:-0.40625:-0.662598:0.625977:14.125:-84.8125:-59.5
1562062828064910:1:1:0:3:-3:7:-1:0:-0.321289:-0.649414:0.605469:-2.3125:-81.4375:-54.875
1562062828102913:1:0:-1:-5:16:-3:-5:-9:-0.247559:-0.687012:0.666504:13.875:-68.5625:-40.5625
1562062828161919:0:0:1:-2:7:-4:-5:0:-0.185547:-0.646973:0.652832:-5.9375:-59.9375:-35.9375
1562062828206924:-1:0:0:-3:-4:0:-5:-4:-0.137695:-0.697754:0.676758:1.25:-38.6875:-17.875
1562062828266930:-3:-1:-1:-2:-13:3:-1:-1:-0.108398:-0.649414:0.665527:-8.5:-24.5:-10.0625
1562062828304934:-3:-3:-4:-6:-12:4:1:2:-0.118164:-0.719727:0.710449:-10.5:-11.125:-2.9375
1562062828364940:0:1:3:4:10:3:1:1:-0.107422:-0.727539:0.750977:-12.625:-11.6875:-4.8125
1562062828405944:2:-1:-5:-13:-4:-2:4:6:-0.111328:-0.759766:0.733887:-4.5:-12.6875:-9.4375
1562062828465950:0:-1:-2:4:-5:-1:-7:-9:-0.101562:-0.72168:0.719238:-4.625:-13.875:-10.9375
1562062828507954:-1:1:1:-12:-4:-3:-1:-2:-0.0864258:-0.740234:0.699707:-0.9375:-11.0625:-8.5
1562062828566960:-2:0:-2:4:10:-3:-1:-8:-0.0839844:-0.708008:0.698242:-1.1875:-10.5:-7.75
1562062828619965:0:-3:-4:-3:4:0:1:3:-0.0581055:-0.732422:0.695801:1.1875:-10.25:-6.75
1562062828664970:0:-1:5:0:-5:0:3:1:-0.0444336:-0.726074:0.681152:1.125:-9.0625:-6.625
1562062828716975:0:-1:1:6:9:1:0:1:-0.0400391:-0.715332:0.690918:-1.9375:-8.125:-5.875
1562062828765980:-1:1:2:-5:-7:-4:-3:-7:-0.0322266:-0.730469:0.689453:-0.0625:-5.1875:-3.5
1562062828807984:-1:-2:-5:-5:-25:-4:-1:0:-0.0317383:-0.719727:0.682617:-0.6875:-5:-3.4375
1562062828867990:-1:-1:-2:7:2:-2:0:0:-0.0317383:-0.730957:0.689941:-4:-5.0625:-2.5
1562062828919995:-2:-1:-6:-6:-3:6:-4:-3:-0.0288086:-0.728027:0.688477:-0.8125:-3.4375:-2.125
1562062828965000:2:1:0:-8:9:1:2:1:-0.0185547:-0.733887:0.685547:-2.0625:-2.5625:-1.5625
1562062829026006:-1:0:3:-1:-4:-1:-3:2:-0.0195312:-0.73291:0.688477:-3.0625:-2.1875:-1.1875
1562062829065010:-2:1:-2:6:-5:-2:5:8:-0.0161133:-0.725098:0.67627:-0.5:-1.4375:-1
1562062829122015:-2:-3:-3:7:-8:-2:0:-2:-0.00683594:-0.723633:0.671387:-3.25:-1.375:0.0625
1562062829168020:-2:-1:-2:1:-5:-4:-3:-3:-0.0112305:-0.73291:0.673828:-2.125:-1:-0.375
1562062829228026:0:0:1:-10:5:0:2:3:-0.0102539:-0.731934:0.695312:-3.125:-1:0.1875
1562062829280031:0:-3:-6:-10:-17:-2:-3:-2:-0.00585938:-0.746582:0.686523:-1.5625:2.625:2.8125
1562062829328036:0:-1:2:3:11:1:-3:-4:0.00634766:-0.73291:0.668945:-6.4375:9.25:7.375
1562062829370040:-3:-2:-3:0:-8:-7:-3:-3:-0.0141602:-0.758789:0.668457:-8.25:27.8125:20.75
1562062829422045:-1:1:4:-1:0:-3:-1:0:-0.0375977:-0.769043:0.663574:-14.25:42.6875:32.4375
1562062829467050:0:2:2:-10:-1:2:0:-1:-0.123047:-0.76123:0.660156:-11.625:64.1875:47.625
1562062829527056:1:0:4:0:1:-1:-2:-9:-0.185059:-0.788574:0.671875:-11.4375:75.5:55.75
1562062829579061:-3:-1:1:2:-25:-8:1:-3:-0.285645:-0.751953:0.609375:-6.5:91.25:63.125
1562062829627066:-3:-3:-10:1:2:-1:-1:-1:-0.368652:-0.718262:0.560547:-7.3125:94.75:66.375
1562062829674070:-1:1:3:3:3:1:-1:2:-0.494629:-0.71582:0.504395:-3.4375:107.812:78.875
1562062829731076:-1:-1:2:6:6:-1:0:-2:-0.594727:-0.641113:0.440918:-6.0625:101.5:76.9375
1562062829783081:0:1:6:14:7:-1:1:0:-0.678711:-0.658203:0.405273:3.3125:96.625:74.625
1562062829828086:3:4:6:-4:-1:2:0:1:-0.704102:-0.567383:0.36084:9.875:89.25:67.375
1562062829881091:-1:0:-1:5:-7:0:0:-1:-0.789551:-0.53418:0.294434:5.25:78.8125:61.9375
1562062829928096:1:-3:-4:0:-1:4:-3:0:-0.719238:-0.461914:0.294922:9.3125:75.125:54.5625
1562062829988102:-1:-2:-5:4:1:-3:-2:-2:-0.861328:-0.418945:0.246582:13.5:51.125:54.625
1562062830030106:-1:1:13:17:-8:-3:1:-1:-0.979004:-0.423828:0.278809:4.5625:33.75:39.625
1562062830091112:0:-1:-3:2:6:3:0:-1:-0.936035:-0.317383:0.125:16:32.4375:29.5625
1562062830127116:-2:-4:-6:-3:-1:0:-2:-2:-0.958008:-0.327637:0.165527:10.0625:27.625:25.6875
1562062830188122:-1:-1:-1:4:8:0:-4:-2:-0.974121:-0.327148:0.156738:8.3125:20:17.4375
1562062830233126:0:-3:-5:-10:10:7:4:2:-1.06055:-0.26709:0.112305:1.5625:4.25:8.25
1562062830285132:-1:-2:-3:-1:-1:1:2:-1:-1.00635:-0.275879:0.097168:1.125:-5.1875:1.875
1562062830331136:0:0:1:-2:-13:1:0:1:-0.958008:-0.271973:0.140625:-5.75:-12.6875:-10.4375
1562062830390142:0:0:-6:-8:4:0:-2:-3:-0.968262:-0.296875:0.124512:-14.4375:-23.8125:-20.5
1562062830430146:-1:-2:-1:-1:3:-2:-2:-2:-0.96582:-0.326172:0.151367:-7.75:-27.75:-28.625
1562062830490152:-2:-1:3:-7:4:-3:-2:0:-0.976074:-0.354004:0.177246:-18.5625:-37.25:-33.125
1562062830533156:-2:-4:-3:0:-4:-4:1:-1:-0.916016:-0.443848:0.217773:-16.1875:-47.1875:-38.25
1562062830584161:-1:-2:-1:-10:-2:0:-3:-4:-0.881348:-0.412109:0.222656:-14.125:-51.6875:-41.3125
1562062830644167:0:2:0:-5:-3:-1:3:1:-0.819824:-0.481934:0.251953:-19:-46.625:-40.625
1562062830689172:-2:0:0:4:-6:-1:1:-1:-0.817871:-0.495117:0.320312:-12.25:-44.0625:-39.875
1562062830742177:-1:-1:0:13:-5:-2:-2:-5:-0.782715:-0.593262:0.367676:-8.1875:-41.0625:-41.625
1562062830791182:-2:-2:-2:0:-2:-2:0:4:-0.744629:-0.566406:0.383301:-8.25:-57.8125:-59.875
1562062830834186:0:1:0:0:2:-3:1:4:-0.675293:-0.664551:0.401855:-1.375:-60.9375:-66.125
1562062830893192:-1:2:6:4:16:1:-3:-6:-0.626953:-0.619141:0.431641:6.75:-70:-73.125
1562062830945198:0:0:-3:1:2:0:-1:1:-0.568359:-0.727051:0.473633:6.875:-73.25:-75.75
1562062830990202:-1:-2:-2:-5:-7:-2:1:2:-0.472168:-0.711426:0.504395:16.75:-77.75:-75.625
1562062831050208:-1:-3:-2:0:-10:-5:-2:-1:-0.390625:-0.781738:0.535645:21.9375:-75.8125:-71.5625
1562062831095213:-2:-1:-3:0:2:-1:-3:-6:-0.28418:-0.669922:0.570312:23.0625:-73.625:-71.25
1562062831147218:-2:-1:-4:5:3:2:0:0:-0.196777:-0.79834:0.615723:11.6875:-67.8125:-64.875
1562062831193222:-3:0:0:-8:-8:-5:-1:0:-0.119141:-0.731445:0.652344:31.875:-54.5:-57.8125
1562062831245228:0:2:2:7:7:3:0:2:-0.0620117:-0.762207:0.680664:18.25:-49.6875:-52.8125
1562062831293232:1:-1:-1:-3:-1:-1:-3:3:0.0107422:-0.745605:0.691406:33.0625:-38.6875:-43.25
1562062831352238:0:2:2:5:6:2:-9:-18:0.0527344:-0.705566:0.706543:19.5625:-37.4375:-39.0625
1562062831395243:0:3:13:3:-2:-1:0:1:0.0844727:-0.716309:0.70459:23.25:-29.5:-28.875
1562062831448248:0:0:3:-2:2:-1:1:-2:0.120605:-0.67627:0.696289:16.3125:-25.625:-23.0625
1562062831493252:-4:-6:-5:-6:9:1:-2:0:0.132324:-0.675781:0.702148:12.3125:-18.0625:-12.0625
1562062831545258:1:0:0:-1:9:3:0:-1:0.153809:-0.657227:0.696289:6.4375:-12.75:-6
1562062831605264:2:1:3:0:12:5:2:1:0.160645:-0.648926:0.712402:-0.625:-5:2.6875
1562062831653268:-1:-2:-4:-7:2:-3:-3:-1:0.165527:-0.660156:0.727051:-9.875:4.0625:8.125
1562062831695273:-2:-1:0:-4:11:0:-2:-2:0.151367:-0.673828:0.72168:-17.1875:20.625:18.125
1562062831748278:-1:0:-1:8:6:-1:0:-1:0.106934:-0.719727:0.74707:-18.75:32:26.125
1562062831807284:-2:-3:-2:-2:3:1:-2:-1:0.0473633:-0.750977:0.729492:-27:41:35.4375
1562062831853288:0:0:1:-1:-1:0:-2:0:-0.0249023:-0.725098:0.666016:-25.625:47.0625:45.75
1562062831904293:0:0:-1:-1:4:5:0:-7:-0.0664062:-0.738281:0.655762:-32.375:50.5625:53.375
1562062831953298:0:-1:-1:-4:-6:-1:0:2:-0.0878906:-0.73291:0.587402:-34.25:58.4375:59.625
1562062831996303:-1:-1:-6:0:-1:1:-2:-1:-0.19873:-0.764648:0.594238:-42.3125:74.5:74.1875
1562062832055309:-1:-2:-4:10:1:3:-3:-3:-0.260254:-0.781738:0.561523:-45.3125:81.1875:73.8125
1562062832108314:-1:-3:-7:-4:-5:-1:1:4:-0.340332:-0.779785:0.529297:-37.9375:82.375:72.625
1562062832156319:2:2:4:0:-1:2:2:-1:-0.416504:-0.73291:0.417969:-37.25:83:61.5
1562062832198323:2:1:2:7:1:1:0:1:-0.480469:-0.729004:0.344727:-29.0625:88.3125:59.3125
1562062832261329:-3:-2:0:-3:-3:-2:-3:-5:-0.635742:-0.720703:0.339355:-33.4375:87.25:54.4375
1562062832309334:-1:-1:1:-4:1:0:-2:-1:-0.661133:-0.733887:0.227051:-25.5:84.0625:47.25
1562062832358339:0:2:2:-4:4:-1:-1:0:-0.776367:-0.672363:0.181641:-8.4375:87.5:47.875
