1562063705908688:1:3:2:35:18:4:2:6:-0.213379:-0.852051:0.434082:-15:-4.3125:1.25
1562063705950692:4:4:8:0:1:6:6:15:-0.219238:-0.911621:0.461914:-4.5:0.5625:-0.125
1562063706009698:2:0:0:-14:-4:1:4:2:-0.242676:-0.874512:0.41748:0.9375:1.5:-2.1875
1562063706062703:-3:-6:-2:-23:6:-3:-6:-13:-0.238281:-0.883789:0.429688:2.25:-0.3125:-1.3125
1562063706107708:0:1:1:-2:17:3:1:3:-0.226562:-0.881348:0.443359:-2:-0.4375:-0.6875
1562063706160713:1:0:-1:-5:1:4:2:1:-0.232422:-0.884277:0.447754:-4.25:-2.1875:-0.9375
1562063706207718:0:-1:-2:2:-1:0:0:-1:-0.224121:-0.872559:0.430664:-8.9375:-2.3125:-3.5
1562063706249722:-1:-2:0:-7:3:6:1:0:-0.228027:-0.902344:0.426758:-8.9375:-2.125:-2.1875
1562063706310728:-1:0:1:9:10:-6:-5:-1:-0.220703:-0.875488:0.419922:-15.6875:-4.125:-2.8125
1562063706362733:-1:0:-2:0:2:-3:-1:-1:-0.220703:-0.913574:0.416992:-11.625:-0.3125:0.625
1562063706407738:-1:0:2:1:-3:4:-1:-1:-0.219727:-0.898438:0.400391:-5.625:-0.75:1.6875
1562063706460743:-2:-1:-2:2:-25:-1:-6:-1:-0.225586:-0.905762:0.404297:-3.8125:1.375:2.5625
1562063706508748:-1:0:2:6:-4:-1:0:0:-0.216309:-0.901367:0.39502:-2.25:-0.3125:2.1875
1562063706565754:-1:-1:-3:-15:-17:0:-2:-3:-0.222168:-0.913086:0.392578:-0.6875:0.3125:1.625
1562063706610758:0:0:0:8:17:5:3:2:-0.226074:-0.894531:0.392578:0.3125:-0.5:1.625
1562063706662763:2:1:0:-6:-4:2:-4:0:-0.167969:-0.92627:0.407227:-0.5625:-0.4375:3.4375
1562063706707768:2:0:2:-6:-6:-6:-2:0:-0.217285:-0.91748:0.404785:-6.25:-0.125:3.875
1562063706759773:-1:-1:-6:-6:-9:2:3:-1:-0.239746:-0.898926:0.37207:-2.375:3.1875:3.9375
1562063706813778:0:0:0:-5:9:1:2:-1:-0.27832:-0.910645:0.37207:-12:5.1875:6.1875
1562063706864783:-1:2:-8:0:-7:-7:-1:-2:-0.275879:-0.922852:0.370605:-9:7.5625:8.125
1562063706909788:-1:0:1:5:10:-8:-3:0:-0.255859:-0.92041:0.363281:-11.1875:5.375:10.5
1562063706963793:-1:-2:0:7:3:-5:-1:0:-0.274902:-0.914062:0.357422:-6.3125:3.875:11.0625
1562063707023799:-1:-2:-8:-21:-7:-4:-5:0:-0.287598:-0.911133:0.34082:-9.1875:1.625:10.25
1562063707053802:-1:-5:-2:5:-8:-5:0:-2:-0.300781:-0.90918:0.337402:-8.625:0.0625:10.1875
1562063707113808:-2:-3:-18:-9:-2:1:3:1:-0.297363:-0.896973:0.340332:-4.375:-2.25:8.3125
1562063707174814:-1:1:4:25:13:-2:0:0:-0.303711:-0.898438:0.344727:-6.1875:-3.625:6.6875
1562063707209818:0:0:4:4:-3:-4:-4:-2:-0.291504:-0.911621:0.333496:-3.9375:-2.125:3.8125
1562063707270824:0:-4:-9:-15:2:-3:-1:1:-0.304199:-0.900879:0.331055:-4:-0.4375:2.875
1562063707322829:-2:-1:0:-1:15:-2:2:-2:-0.316406:-0.914551:0.324707:-2.9375:1.4375:2.625
1562063707371834:-2:0:4:-10:5:2:2:-1:-0.316406:-0.905273:0.320801:0.8125:1.125:1.6875
1562063707412838:1:0:0:0:0:1:0:2:-0.312012:-0.908691:0.326172:-0.75:1.375:-0.3125
1562063707473844:-1:-2:-2:-1:2:0:-1:0:-0.315918:-0.912109:0.321777:0.4375:-1.0625:-0.6875
1562063707525850:0:0:5:12:3:5:0:2:-0.316406:-0.910645:0.328125:2.375:0.25:-1
1562063707569854:-2:-4:-8:-8:-1:-2:-8:0:-0.311035:-0.915039:0.326172:-1.4375:-0.9375:-0.8125
1562063707611858:0:-2:-1:-4:-8:-1:2:-1:-0.310059:-0.912598:0.323242:-0.125:-1.4375:0.3125
1562063707675865:0:0:2:10:-7:-2:1:-1:-0.308594:-0.917969:0.329102:-2.9375:-1.625:2.125
1562063707727870:-1:-3:-5:13:9:-3:-2:0:-0.302246:-0.921875:0.331543:-1:-1.375:4.375
1562063707772874:-2:-1:-1:6:-16:-3:-1:-2:-0.30957:-0.907715:0.330078:-1.375:-1.125:6.625
1562063707824879:0:1:1:-12:-22:-2:0:-1:-0.329102:-0.901855:0.335449:0.75:-2:7.4375
1562063707873884:-1:-3:-4:-13:-1:-2:-3:0:-0.333496:-0.896973:0.330566:1.6875:-2.125:4.3125
1562063707916889:-2:-2:-3:-4:9:-6:-1:0:-0.337891:-0.90918:0.325195:3.6875:-1.125:2
1562063707976895:0:-2:0:17:-3:-2:-2:-1:-0.355957:-0.898438:0.324219:7.8125:1.1875:0.3125
1562063708027900:-2:1:2:1:7:1:2:-1:-0.336914:-0.898926:0.335449:6.9375:1.0625:0
1562063708072904:-3:-1:0:-27:7:0:-1:-1:-0.319336:-0.89502:0.348145:-0.1875:1.625:0
1562063708132910:-1:1:-1:35:-4:0:2:-1:-0.325195:-0.901855:0.350098:1:1.1875:0.3125
1562063708173914:2:-2:-3:1:3:3:2:0:-0.322266:-0.88916:0.355957:1.75:-0.625:2.1875
1562063708233920:-1:-1:0:-17:12:4:2:-1:-0.312988:-0.893066:0.34668:-0.375:-1:2.0625
1562063708275925:-1:-1:3:7:-9:-4:1:-1:-0.331055:-0.875488:0.361816:-2.125:-1:2.75
1562063708328930:0:1:4:6:-8:-3:-1:-1:-0.32959:-0.895996:0.36084:-2.625:-0.6875:2.4375
1562063708373934:1:1:4:9:-3:-5:-2:0:-0.339355:-0.893555:0.345703:-3.0625:0.125:1.5625
1562063708432940:1:3:5:6:6:0:3:1:-0.347168:-0.895508:0.335938:-5.3125:1.375:1.8125
1562063708485946:0:0:-3:8:3:1:1:1:-0.365723:-0.900391:0.328125:-4.75:1.4375:3.0625
1562063708533950:0:-2:-2:18:-3:0:-4:1:-0.362793:-0.89502:0.339844:-3.125:0.6875:4.0625
1562063708575955:-2:-3:-1:11:10:1:2:0:-0.361328:-0.892578:0.328125:-4.1875:-0.9375:4.5
1562063708636961:1:0:-1:5:-10:3:-4:2:-0.358887:-0.896973:0.329102:-1.75:-0.9375:3.75
1562063708687966:-1:1:-2:-4:-20:-5:-2:-1:-0.350098:-0.893555:0.331055:-1.6875:-1.5625:2.875
1562063708733970:-2:-2:-2:3:5:-2:0:-1:-0.341309:-0.893555:0.330078:-0.0625:-1.5625:2.3125
1562063708778975:0:-1:-3:18:3:2:-1:-1:-0.344727:-0.897949:0.335449:-1.5625:-1.3125:2.8125
1562063708838981:0:-1:-2:-7:9:1:1:-2:-0.347656:-0.901855:0.327637:-0.3125:-0.5:4.375
1562063708889986:-1:-2:-2:8:1:0:2:-1:-0.36084:-0.89502:0.337891:-1.25:-0.625:7
1562063708938991:-1:-4:-1:-14:1:0:2:-2:-0.374512:-0.887695:0.327637:0.3125:-0.875:9.0625
1562063708988996:0:-1:-3:-8:0:2:-1:1:-0.382812:-0.881836:0.32373:-1.4375:-2.75:9.625
1562063709036001:-2:-1:-1:-1:0:0:2:0:-0.396973:-0.870117:0.338867:0.625:-3.8125:7.6875
1562063709079005:0:0:1:0:4:-1:0:-3:-0.402344:-0.871094:0.32373:-1.625:-4.9375:6.4375
1562063709138011:-2:-1:-2:-1:-5:-1:2:-1:-0.395508:-0.87207:0.334473:-1.375:-3.875:4.125
1562063709190016:0:-2:0:2:-7:-1:0:2:-0.398438:-0.875488:0.338379:-1.0625:-4.6875:4.25
1562063709236021:-2:0:3:-9:0:-2:2:-1:-0.393555:-0.870605:0.335449:-1:-5.1875:3.3125
1562063709289026:-1:0:0:-1:-3:-3:2:-1:-0.391602:-0.876465:0.334473:-1.375:-4.375:3.0625
1562063709336031:0:-2:-2:3:-10:1:1:-1:-0.391602:-0.861816:0.344238:0.6875:-4.4375:2.875
1562063709396037:-1:-2:-1:-6:-5:-3:-4:-2:-0.391602:-0.876465:0.336426:-1.5:-3.6875:2.9375
1562063709439041:-2:-4:-4:-4:-4:1:1:-1:-0.401855:-0.880371:0.330566:-1.1875:-2.125:2.75
1562063709490046:-1:0:0:3:5:-2:-2:-2:-0.410156:-0.858887:0.338867:0.625:-0.5625:2.5625
1562063709537051:-2:-1:-1:8:-6:-5:-2:-1:-0.406738:-0.859375:0.342773:-2.25:-0.75:2.375
1562063709596057:-1:-1:-2:-9:-5:-2:-2:-1:-0.415527:-0.859375:0.34082:-3.0625:-3.4375:1.4375
1562063709648062:-2:-1:1:7:2:-1:-1:-1:-0.415039:-0.859375:0.324707:-3.75:-5.4375:-1.625
1562063709694066:1:-2:2:-4:5:4:-2:1:-0.395508:-0.87793:0.330566:-2.1875:-6.625:-3.125
1562063709739071:-1:-1:-2:2:-5:2:1:0:-0.378906:-0.883789:0.333496:-2.75:-5.875:-4.4375
1562063709791076:0:0:-3:-6:8:-1:-3:-1:-0.372559:-0.895508:0.34668:-1.3125:-5.8125:-3.125
1562063709839081:0:2:0:-22:-13:-1:-6:0:-0.404297:-0.872559:0.351074:1.75:-6.25:-0.5625
1562063709881085:-2:-3:-7:-22:-3:5:6:0:-0.414551:-0.868164:0.350098:-2.375:-6.25:0.625
1562063709941091:-3:0:0:7:16:-7:-4:-1:-0.387207:-0.871094:0.337402:-4:-4.125:0.9375
1562063710001097:2:-1:-5:-17:-2:1:1:1:-0.367188:-0.870117:0.333496:-11.6875:-5.4375:0.1875
1562063710039101:-1:-3:-11:-42:-2:-7:0:-2:-0.381836:-0.878418:0.310547:-15.1875:-9:1.375
1562063710099107:0:-1:0:22:6:-1:-4:-1:-0.386719:-0.879395:0.31543:-13.1875:-10.875:0.5
1562063710139111:2:0:1:1:11:2:2:1:-0.36377:-0.910645:0.316895:-11.75:-6.5:3.5
1562063710198117:-2:-4:-1:2:2:-2:-1:-1:-0.358398:-0.898926:0.3125:-2.375:-4.25:4.3125
1562063710241121:1:1:4:7:2:4:2:2:-0.373047:-0.89502:0.306152:-1:-0.5625:2.8125
1562063710302127:0:-1:-6:-14:1:-1:11:0:-0.39502:-0.885254:0.31543:4.1875:-0.5:1.125
1562063710353132:-1:0:2:-1:-1:0:-2:-2:-0.394531:-0.878418:0.313477:1.875:-1:0.8125
1562063710401137:-1:-2:0:13:4:0:-3:2:-0.391602:-0.890625:0.314453:-1.0625:0:0.5625
1562063710450142:0:0:0:4:-3:-2:-4:-1:-0.401855:-0.882324:0.321289:2.75:-1.125:0.6875
1562063710496147:-1:-1:1:0:10:2:0:1:-0.38623:-0.885742:0.324219:-4.9375:-2.25:1.875
1562063710555152:0:0:2:18:11:-1:-1:0:-0.392578:-0.88623:0.305664:-4.4375:-1.375:1.75
1562063710604157:1:0:2:-32:-12:-7:-2:0:-0.38623:-0.893555:0.290039:-9.75:-3.875:2.4375
1562063710654162:2:2:2:38:21:7:6:5:-0.395508:-0.918457:0.262207:-0.25:-12.6875:5.9375
1562063710705167:9:9:-3:1:-14:23:12:9:-0.416504:-0.929688:0.173828:-3.3125:-30.5:5.5
1562063710758173:-2:-9:-47:-75:29:-11:-3:-5:-0.489258:-0.835449:0.305664:11.3125:-61.6875:10.4375
1562063710807178:6:14:33:-2:27:12:6:2:-0.216309:-0.974609:0.469238:-21.375:-9.5625:11.3125
1562063710856183:-11:5:26:-11:-98:-7:-4:-6:-0.377441:-0.829102:0.327148:-19.8125:7.9375:13.0625
1562063710904187:-26:-39:-22:81:87:-48:-35:-26:-0.421875:-0.883301:0.305664:-31.4375:9:10.625
1562063710954192:6:1:-75:-57:35:35:19:9:-0.446289:-0.88623:0.296387:-22.875:11.4375:5.375
1562063711009198:-1:-5:-33:-73:-38:-9:-2:0:-0.442383:-0.849609:0.229004:-17.0625:8.375:7.9375
1562063711058203:-14:-8:-45:-19:-16:-3:-4:-4:-0.468262:-0.87207:0.205078:-8.5625:5.25:5.0625
1562063711107208:1:4:16:33:91:23:5:1:-0.373535:-0.86377:0.241211:-6.9375:-3.5625:1.375
1562063711156213:13:18:71:84:-57:13:14:10:-0.404785:-0.924805:0.28418:-0.875:-8.8125:-6
1562063711204217:3:2:0:78:-62:1:9:5:-0.382812:-0.90918:0.260742:6.75:-5.125:-10.75
1562063711253222:2:8:45:-23:24:-2:2:1:-0.40625:-0.885254:0.254883:0.25:0.25:-1
1562063711306228:-1:3:59:11:-67:-11:1:-2:-0.433594:-0.88916:0.257812:7:4.3125:2.375
1562063711358233:3:7:20:-85:-86:-10:-1:2:-0.408203:-0.893555:0.253418:8.625:-3.125:0.375
1562063711407238:-2:-4:-17:-9:22:11:4:-2:-0.373535:-0.901855:0.290527:8.5:-2.5625:-2.8125
1562063711456243:-3:-6:1:13:22:2:-3:-6:-0.32373:-0.937012:0.305176:36.25:6.25:-1.375
1562063711504247:5:0:-2:7:2:3:-10:4:-0.388672:-0.806152:0.329102:42.75:19.375:-8.3125
1562063711564253:-5:-5:-6:-8:-4:-1:5:1:-0.351562:-0.879883:0.405762:6.125:30.8125:-7.375
1562063711609258:2:-5:-10:-31:-1:3:9:16:-0.52002:-0.82666:0.206543:-18.1875:32.1875:2.5625
1562063711658263:-2:-2:-1:12:1:0:0:0:-0.51123:-0.88623:0.184082:-8.5625:14.9375:2.5
1562063711718269:-2:1:-1:12:-9:0:11:2:-0.476562:-0.943359:0.233398:-7.8125:0.25:5.1875
1562063711766274:-1:3:1:9:-2:-1:0:-1:-0.439941:-0.836914:0.260254:-2.25:-1.6875:7.6875
1562063711815278:0:-1:-1:6:2:2:-2:-1:-0.418945:-0.915039:0.269043:-7.5:0.375:3.5625
1562063711868284:-1:-1:2:4:-5:-2:0:-1:-0.416504:-0.865234:0.243652:-2.1875:-2.1875:1.625
1562063711922289:0:-2:-1:-5:0:1:2:0:-0.428223:-0.905762:0.245605:-2.9375:0.375:-1.6875
1562063711968294:0:-3:2:-6:-6:1:2:0:-0.440918:-0.874512:0.252441:0.5625:1.875:-1.625
1562063712018299:-1:-2:-4:-32:-6:-3:-1:0:-0.448242:-0.891602:0.239746:-5.625:1:-0.4375
1562063712066304:-2:-2:1:11:-6:-3:1:3:-0.446777:-0.880371:0.250488:0:-1:1
1562063712116309:-1:1:-4:-1:-2:-2:0:1:-0.442871:-0.869629:0.256348:0.125:-1.125:1.8125
1562063712166314:1:1:1:7:5:0:0:7:-0.447266:-0.89209:0.24707:-2.6875:2.1875:1.0625
1562063712222319:1:1:-2:-3:-3:-1:-3:-3:-0.441895:-0.881348:0.236816:-1.9375:2.375:2
1562063712269324:-3:0:2:2:1:-2:0:0:-0.449219:-0.893555:0.248047:-3.5625:4.1875:1.1875
1562063712330330:-1:0:1:3:-4:0:-2:-3:-0.449707:-0.877441:0.236816:-2.9375:2.4375:1.5
1562063712366334:0:1:0:2:-3:-1:-1:0:-0.455078:-0.87793:0.234863:-1.5625:2.125:1
1562063712426340:-1:-2:0:-12:3:0:1:-1:-0.452148:-0.874512:0.225586:-4.8125:0.1875:0.0625
1562063712475344:1:1:2:15:-4:-4:4:2:-0.458008:-0.88916:0.226074:-3.8125:-0.25:0.0625
1562063712527350:-1:1:-6:-1:0:0:0:1:-0.458008:-0.878418:0.237305:-0.0625:-0.125:0.6875
1562063712572354:0:1:2:-4:-2:-1:-4:0:-0.455078:-0.888672:0.225098:-2.9375:0.3125:1
1562063712629360:0:-2:0:-11:-1:1:2:4:-0.45166:-0.898438:0.228027:1:0.25:2.4375
1562063712678365:0:0:-2:-10:-19:-1:-3:2:-0.458984:-0.881836:0.232422:0.5:0.875:2.4375
1562063712728370:-1:-3:1:1:4:-2:-1:2:-0.472168:-0.87793:0.230469:-1.5625:0.375:2.5625
1562063712768374:-1:1:0:2:5:0:2:-1:-0.472656:-0.869629:0.234375:-0.6875:1.5:0.875
1562063712829380:-2:-1:1:4:-4:-2:2:7:-0.473633:-0.87207:0.234863:-2.0625:2.1875:-0.375
1562063712881385:-1:-4:-3:-14:-1:-1:0:2:-0.473145:-0.88623:0.222168:-3.6875:0.625:0.0625
1562063712929390:1:0:1:-4:0:1:0:-2:-0.468262:-0.871094:0.209961:-4.4375:0:0.625
1562063712978395:-2:0:1:1:-3:-2:2:1:-0.455078:-0.873047:0.20166:-6.5625:0.0625:-0.125
1562063713029400:-1:1:-1:-1:-1:0:-1:-2:-0.443848:-0.884277:0.213379:-1.8125:0.875:-1.0625
1562063713068404:0:0:-1:10:-1:-3:-2:-2:-0.44873:-0.883301:0.225098:-0.25:0.6875:-0.8125
1562063713128410:-1:-1:-2:0:-3:-1:-3:-3:-0.463379:-0.88916:0.222168:3.9375:0.5625:1.875
1562063713182415:0:0:0:21:0:-1:-1:-4:-0.488281:-0.882812:0.231934:2.0625:1.0625:4.4375
1562063713229420:1:0:0:-2:1:-1:2:-1:-0.506348:-0.892578:0.219727:3.0625:1.6875:6.75
1562063713277425:-1:-2:-6:-12:-2:0:-1:-1:-0.48877:-0.875488:0.202637:-4:2.1875:10.3125
1562063713330430:-1:-1:-1:1:5:-1:0:7:-0.478516:-0.86084:0.199219:-5.9375:1.8125:8.875
1562063713383435:0:-1:0:3:-8:-1:1:0:-0.466797:-0.848633:0.194824:-6.875:1.5625:1.875
1562063713430440:1:0:-1:2:-2:-5:2:-1:-0.464355:-0.868652:0.19043:-4.4375:0.375:-2.625
1562063713488446:-1:0:-2:-5:-2:-3:-2:2:-0.475586:-0.882324:0.185547:1.125:-0.1875:-5.0625
1562063713531450:-1:-1:-2:1:6:1:-1:-2:-0.478516:-0.893066:0.191895:0.8125:-0.8125:-2.125
1562063713586456:-1:0:1:-7:-6:-2:-1:-1:-0.511719:-0.874512:0.21582:-0.4375:-1.9375:1.8125
1562063713630460:-1:0:0:4:-1:-2:-3:-3:-0.50293:-0.867676:0.208984:-2.625:-2.0625:2.5
1562063713684465:0:1:1:-1:7:1:0:3:-0.480957:-0.876465:0.213379:-0.5:0.1875:2.6875
1562063713728470:0:-1:1:5:-1:0:0:4:-0.491211:-0.87793:0.199707:-3.3125:1.0625:3.1875
1562063713788476:-2:0:-2:-4:-3:0:2:4:-0.503906:-0.869141:0.197266:-1.8125:2.875:3
1562063713841481:0:0:-2:7:4:-1:-2:-2:-0.512207:-0.861328:0.209473:-3.875:2.875:3.3125
1562063713887486:-1:0:0:-5:-10:-4:-1:3:-0.515137:-0.856445:0.197266:-1.25:2.8125:3.9375
1562063713930490:0:0:-1:-9:-5:-1:1:-3:-0.506348:-0.866211:0.19043:-1.9375:1.0625:3.5
1562063713991496:0:-2:0:10:-2:1:-1:-1:-0.489258:-0.842285:0.180664:-4.875:-2.625:-0.0625
1562063714031500:-1:0:-1:-6:1:-2:-1:0:-0.470215:-0.85791:0.167969:-8.125:-3.25:-5.25
1562063714091506:-2:-4:-2:-4:7:2:-1:-2:-0.45166:-0.885254:0.165039:-4.3125:-3.375:-9.3125
1562063714141511:1:-2:-5:6:-7:-2:-2:-1:-0.474121:-0.899902:0.179688:-0.75:-2.9375:-7.1875
1562063714191516:1:1:1:7:15:0:-1:0:-0.495117:-0.891602:0.175293:2.6875:-0.5625:-1.875
1562063714230520:-1:-2:-2:3:5:-3:0:0:-0.503418:-0.887207:0.169434:5.0625:-1.375:0.5625
1562063714290526:0:-2:-4:-12:-3:0:-1:2:-0.504395:-0.879395:0.212402:2.4375:-1.125:0.8125
1562063714344531:-1:-2:-6:-1:2:0:0:4:-0.511719:-0.874512:0.20752:1.75:-0.125:0.75
1562063714392536:0:-1:-1:3:0:-2:-2:3:-0.515137:-0.866699:0.211426:0.8125:0.0625:1.75
1562063714440541:0:-2:-1:1:0:1:0:4:-0.506348:-0.865723:0.191895:-2:-1.25:2.8125
1562063714492546:-1:0:0:2:5:0:-1:-1:-0.472656:-0.875:0.202637:-0.3125:-1.25:3.1875
1562063714530550:1:-1:-2:-2:6:0:-3:3:-0.490234:-0.874512:0.191895:-2.75:-2.1875:2.25
1562063714591556:-1:-1:1:10:-1:-3:0:6:-0.492188:-0.865723:0.178711:-3.25:-2.875:0.5
1562063714644561:-1:0:1:-5:4:-1:-3:0:-0.492188:-0.866699:0.193848:0.0625:-3.3125:0.75
1562063714694566:-2:-2:-1:-8:-1:-4:-4:-12:-0.48877:-0.881836:0.182617:-0.5:-3.9375:-0.1875
1562063714733570:0:0:-1:3:1:0:-2:3:-0.494629:-0.869141:0.186523:2.125:-2.625:-1.375
1562063714793576:-1:-1:-3:-10:-10:-1:-1:2:-0.490234:-0.871094:0.194336:2.375:-1.3125:-2.1875
1562063714845581:-2:-2:-1:-17:-16:-2:-4:1:-0.493164:-0.868652:0.209473:1.4375:-0.375:-2.625
1562063714894586:1:0:2:-1:-4:-3:1:1:-0.490723:-0.870605:0.199707:0.375:0.3125:-2
1562063714944591:-1:1:0:-2:-1:-3:0:6:-0.490234:-0.87793:0.212891:0.6875:0.5:0.5
1562063714994596:-1:-1:-1:0:1:1:0:-2:-0.48584:-0.868652:0.206055:-0.625:0.5:1.5625
1562063715032600:1:-1:-4:-6:-2:-1:-2:-2:-0.49707:-0.865723:0.201172:-0.25:1.25:1.4375
1562063715093606:0:-1:-2:-20:2:1:-2:1:-0.494629:-0.869629:0.198242:-1.4375:1.125:-0.0625
1562063715145611:0:1:1:-68:-31:1:0:1:-0.495117:-0.902344:0.166016:-2.375:-5.8125:2.25
1562063715195616:-7:-9:-9:-26:-15:-26:-15:-10:-0.51123:-0.846191:0.150391:18.75:-15.75:1.9375
1562063715243621:11:21:38:-21:25:27:15:11:-0.552734:-0.885742:0.0864258:6.875:-38.0625:3.9375
1562063715295626:-6:-16:-35:-60:-34:-18:-13:-10:-0.316895:-0.867188:0.352051:2.75:-49.1875:-14.75
1562063715348632:12:19:14:20:36:10:11:10:-0.361816:-0.9375:0.415039:4.25:-11.1875:-14.5625
1562063715392636:3:7:66:-123:3:-12:-1:1:-0.486816:-0.873047:0.207031:-66.0625:-6.1875:7.1875
1562063715446642:13:15:38:67:75:44:18:11:-0.442383:-0.894043:0.260742:-4.4375:-1.875:-1.125
1562063715497647:-23:-37:-105:103:-3:-62:-30:-18:-0.45752:-0.853516:0.236328:-23.8125:-3.3125:2.875
1562063715535650:-12:-4:55:110:71:21:-7:-9:-0.458496:-0.905273:0.223633:-13.75:-0.875:-0.125
1562063715595656:-12:-18:-55:47:-43:-40:-18:-14:-0.453613:-0.866211:0.213867:-12.625:-2:-3.125
1562063715649662:-11:-11:25:-10:113:-21:-15:-10:-0.442871:-0.904297:0.211426:-2.375:-0.625:-3.8125
1562063715693666:-2:3:66:3:-43:1:-3:-4:-0.438477:-0.902344:0.210449:-3.25:1:-3.1875
1562063715746672:6:4:-17:-9:33:9:9:5:-0.444336:-0.889648:0.191895:-2:0.5:0
1562063715796677:8:15:21:-62:-23:-8:0:2:-0.455078:-0.897949:0.190918:2.4375:0.0625:-0.25
1562063715851682:2:6:17:3:-77:-15:5:2:-0.44043:-0.901367:0.199219:-5.5625:0.0625:0.5625
1562063715901687:3:10:34:17:20:6:3:1:-0.436523:-0.896973:0.183594:3.875:0.0625:-0.625
1562063715955692:-3:-3:-13:-19:-14:-8:-6:-3:-0.407715:-0.873535:0.230957:7.75:5.3125:-1.125
1562063715995696:-50:0:-5:38:3:0:-22:-46:-0.412109:-0.916504:0.258301:38.5625:22.75:3
1562063716055702:17:11:1:37:-2:0:10:17:-0.48584:-0.862793:0.242676:45.375:37.6875:0.5
1562063716105707:-14:2:-2:-15:-13:-3:-8:-19:-0.497559:-0.866699:0.191406:6.125:34.1875:4.5
1562063716151712:-13:-3:-4:-28:1:-2:-4:-4:-0.496094:-0.903809:0.144531:-4.1875:6.1875:14.3125
1562063716195716:0:0:-5:1:-1:-2:8:-6:-0.496094:-0.828613:0.205078:0.75:-5.0625:8.4375
1562063716255722:0:-3:-2:-15:-6:-2:0:-3:-0.479492:-0.887695:0.25293:0.0625:-12.5625:-1.125
1562063716295726:-1:-1:-1:2:1:-3:-1:7:-0.463867:-0.830566:0.270508:7.5625:-2.5625:-3.3125
1562063716353732:-1:-3:-5:-10:-5:2:3:4:-0.474121:-0.888184:0.239746:-7.875:3.125:-3.5625
1562063716398737:0:-1:2:6:4:0:-6:-6:-0.483887:-0.898926:0.22168:-2.0625:3.9375:-0.1875
1562063716450742:0:0:2:2:-1:-2:1:-3:-0.495605:-0.861816:0.226562:-0.9375:3.5:2.0625
1562063716495746:-3:-3:-6:-9:-3:-1:-6:-6:-0.494141:-0.867188:0.228027:-1.9375:1.5625:3.1875
1562063716555752:1:2:0:-15:4:0:-1:0:-0.488281:-0.858887:0.221191:-3.5:0.9375:0.6875
1562063716608758:1:-1:-1:1:-2:0:-3:-3:-0.489746:-0.866699:0.214844:-4.8125:-0.375:-0.9375
1562063716658763:-1:-2:0:-1:0:1:-3:-3:-0.477051:-0.890625:0.212891:-1.8125:0.1875:-0.6875
1562063716698767:1:-2:0:15:3:0:5:7:-0.470215:-0.879883:0.213379:1:2.5625:0.5
1562063716758773:0:-3:-1:-3:-2:-2:1:8:-0.478027:-0.870117:0.212402:0.125:2.25:1.3125
1562063716811778:-3:-3:-7:-3:-1:-2:-3:-5:-0.492676:-0.869141:0.220215:-0.5:2.1875:1.0625
1562063716859783:-3:1:3:5:4:-2:-1:-1:-0.492676:-0.866699:0.213867:0.8125:2.8125:1.25
1562063716908788:0:-2:-1:5:4:-6:16:3:-0.501953:-0.866211:0.216797:0.4375:-0.25:0.9375
1562063716958793:0:1:-1:-3:-5:1:-6:-18:-0.507812:-0.873047:0.202148:-3.4375:-4.625:0.625
1562063717013798:1:0:2:-10:-2:-4:0:4:-0.493164:-0.885254:0.206055:-1.25:-4.625:2.8125
1562063717057803:0:-2:0:3:1:-2:-1:2:-0.486328:-0.851074:0.23584:2.5:-1.9375:1.625
1562063717111808:1:0:-4:-4:0:-1:6:2:-0.507812:-0.866699:0.218262:-5.1875:-1.5:-0.4375
1562063717158813:-1:1:0:0:-1:-3:-4:1:-0.498047:-0.856445:0.210449:0.75:-0.625:-0.8125
1562063717215818:-2:0:4:6:1:-2:6:-14:-0.475586:-0.868164:0.217285:-0.875:0.75:-3.625
1562063717261823:0:0:2:-8:-1:-1:2:6:-0.474121:-0.869629:0.224121:-0.9375:1.5:-4.375
1562063717312828:1:-2:-1:-2:-1:-2:-3:6:-0.487305:-0.865234:0.223633:-3.0625:1.6875:-3.9375
1562063717358833:1:0:-2:-5:-2:-3:-11:-4:-0.481934:-0.871582:0.213379:-1.75:3.4375:-3
1562063717413838:0:0:0:-6:-2:0:3:-2:-0.478516:-0.877441:0.20166:-1:2.5625:-2.25
1562063717457843:0:1:2:8:2:-2:2:-2:-0.484863:-0.870117:0.209473:-0.25:1.125:-1.625
1562063717515848:-1:0:-1:2:0:3:-2:1:-0.491211:-0.871582:0.205566:0.25:-2.8125:-1.1875
1562063717560853:0:-2:-4:-7:-9:-1:-5:0:-0.498047:-0.863281:0.213867:0.375:-4.5625:-0.5625
1562063717612858:0:1:2:-2:4:0:3:0:-0.490723:-0.87207:0.214844:1.375:-5.6875:-0.0625
1562063717657863:-1:-1:2:6:6:1:1:0:-0.454102:-0.890137:0.202637:3.8125:-5:1.1875
1562063717718869:-1:-1:2:12:-2:1:-4:-3:-0.453125:-0.879883:0.222168:1.5625:-4.125:1.5
1562063717758873:0:-1:-3:-4:-3:1:0:-1:-0.468262:-0.875488:0.221191:0.125:-3.625:1.5
1562063717819879:1:-2:1:5:-3:-1:-1:0:-0.47998:-0.866699:0.235352:1.4375:-0.5625:1.6875
1562063717860883:0:0:-3:-6:-2:0:-4:0:-0.486816:-0.86377:0.243652:-1.5625:2.125:0.6875
1562063717920889:1:0:0:7:1:0:0:0:-0.490723:-0.858887:0.231445:-1.5625:1.625:0.25
1562063717958893:-1:-2:-4:-22:-4:1:2:1:-0.48877:-0.866211:0.223145:-1.8125:2.25:-1.3125
1562063718017899:-2:0:1:11:3:-3:-2:-1:-0.493164:-0.878906:0.226562:-0.9375:1.6875:-0.6875
1562063718073904:1:-1:0:4:1:0:0:0:-0.480469:-0.873047:0.214355:0.8125:2.1875:2
1562063718123909:-4:-2:-8:-3:-9:-6:-2:-2:-0.459473:-0.882812:0.21582:-0.125:2.875:3.5
1562063718160913:-1:0:5:1:1:2:3:0:-0.48291:-0.867676:0.241699:5.0625:6.0625:5.125
1562063718220919:-2:0:-1:-6:-3:-2:-4:-2:-0.511719:-0.854492:0.231934:-1.8125:4.375:7.0625
1562063718273924:-1:-2:-2:0:0:0:-3:-1:-0.531738:-0.837402:0.214355:-0.875:4.3125:5.5
1562063718321929:0:-1:1:-2:-13:0:1:0:-0.516113:-0.85791:0.203613:-3.5625:3.75:2.75
1562063718362933:-1:-4:-6:2:-2:0:1:-2:-0.504395:-0.867676:0.221191:1.125:1.625:1.1875
1562063718422939:0:1:3:-3:-2:-2:-2:-1:-0.505859:-0.848633:0.208496:-2.125:1.6875:-0.0625
1562063718460943:-1:-1:-1:4:1:-4:-1:-1:-0.503418:-0.860352:0.195801:0.375:1:-0.5625
1562063718520949:-1:-2:-4:-13:-6:-4:-1:-2:-0.508301:-0.857422:0.199219:-1.3125:-0.4375:-1.6875
1562063718561953:-1:0:1:5:5:0:2:-1:-0.509766:-0.857422:0.199707:0.8125:-3.125:-0.875
1562063718621959:-2:0:1:-3:7:-2:-4:-2:-0.496094:-0.871582:0.202148:-0.3125:-1.75:-1.1875
1562063718662963:-1:1:1:-8:-5:-3:-1:0:-0.507324:-0.855469:0.225098:2.375:-1.125:0.25
1562063718723969:0:-2:-1:-4:-2:1:1:0:-0.513672:-0.86377:0.215332:0:1.125:0.625
1562063718775974:-1:-2:-4:-21:-5:-3:-1:0:-0.508301:-0.856445:0.216797:1.375:2.5625:0.9375
1562063718820979:-1:0:1:-6:4:2:2:-2:-0.520996:-0.846191:0.21875:0.125:1.5625:-0.6875
1562063718875984:1:-3:0:5:-2:0:0:-2:-0.522949:-0.853027:0.205566:-0.3125:-0.8125:-0.5
1562063718921989:-1:0:0:-2:-4:1:2:-1:-0.506348:-0.856934:0.207031:-0.25:-1.75:-0.875
1562063718978995:-2:0:2:0:0:0:1:1:-0.491211:-0.867188:0.224609:-0.6875:-2.125:-1.75
1562063719022999:0:-1:-2:4:-6:-3:-4:-1:-0.505371:-0.867676:0.21875:-1.25:-1.1875:-0.4375
1562063719076004:1:-1:-1:-6:2:-1:0:0:-0.515625:-0.86084:0.215332:-0.1875:-2.375:1.1875
1562063719121009:-2:2:3:-5:-3:-2:0:0:-0.501953:-0.855957:0.224609:0.5625:0.4375:0.9375
1562063719177015:-2:-2:-2:-5:-1:-2:-4:-2:-0.502441:-0.857422:0.21582:1:0.625:0.0625
1562063719226019:0:1:-3:-13:1:0:0:1:-0.500488:-0.864258:0.213379:-0.25:1.3125:-0.8125
1562063719279025:-1:1:0:9:-4:1:0:-2:-0.506836:-0.853027:0.219238:-0.3125:0.0625:-0.5
1562063719324029:-1:-2:-2:-7:-1:-1:0:0:-0.502441:-0.85791:0.215332:-1.125:-0.625:-0.125
1562063719376034:-1:-1:-1:-4:2:-2:0:0:-0.500488:-0.862305:0.213867:-1.3125:0.0625:-0.125
1562063719423039:1:0:0:-3:0:-2:-1:1:-0.500977:-0.859375:0.212402:-0.625:0.25:0.5
1562063719482045:0:-2:-2:0:-1:3:2:1:-0.508789:-0.854004:0.211426:-0.8125:0.1875:0.8125
1562063719526049:-1:-1:-1:-1:3:2:1:1:-0.509766:-0.855957:0.222656:-0.25:0.6875:0.0625
1562063719578055:1:1:-2:1:-1:-2:-3:-1:-0.506348:-0.860352:0.220703:-0.625:-0.3125:-0.25
1562063719623059:-1:-1:-2:-6:5:0:-2:0:-0.510742:-0.86084:0.216797:0.375:0.4375:0.375
1562063719683065:0:-1:-3:-4:-3:0:0:0:-0.511719:-0.853516:0.21875:0.1875:0.75:0.6875
1562063719724069:-2:-1:-1:-10:1:-1:-1:-2:-0.504395:-0.861816:0.217773:-1.3125:0.375:0.375
1562063719785075:0:1:2:16:3:-2:-2:-3:-0.500488:-0.853516:0.207031:-1.1875:0:-0.5
1562063719826079:0:0:-1:-5:3:-1:-3:0:-0.504395:-0.862793:0.20752:-0.5:0.625:-1.0625
1562063719878085:-1:-2:-3:-1:5:-1:1:-1:-0.507324:-0.859375:0.206055:0.5:-1.25:0.125
1562063719923089:0:-1:-2:-5:-10:-4:-3:-2:-0.501465:-0.865723:0.210938:-0.8125:0.6875:-0.1875
1562063719983095:-1:0:-4:-9:2:-1:-2:1:-0.506348:-0.853516:0.214355:0.8125:-0.8125:0.1875
1562063720028100:-2:0:-2:-2:-2:0:0:-1:-0.51123:-0.864746:0.21875:-1.375:0.1875:-1
1562063720080105:-1:0:-2:-6:-1:0:-1:-1:-0.510742:-0.850098:0.213867:0.375:-0.125:-1
1562063720126109:1:0:-1:1:-4:0:0:1:-0.501953:-0.866211:0.219238:-0.125:0.5:-1.4375
1562063720186115:-1:1:1:6:4:0:2:0:-0.505859:-0.856445:0.209473:0.4375:0.625:-1.6875
1562063720238121:0:-1:-3:-1:0:-1:-1:0:-0.509766:-0.862305:0.208984:-0.6875:-0.25:-1
1562063720286125:-1:-1:-4:-14:-13:-1:-2:-1:-0.5:-0.86377:0.21582:-0.375:-0.3125:-0.25
1562063720337131:0:1:1:6:5:1:-1:0:-0.507812:-0.858887:0.208008:-0.9375:0.125:0.125
1562063720388136:1:-1:0:-2:2:0:1:1:-0.501465:-0.866699:0.208496:-0.1875:0.5625:0.6875
1562063720426139:1:-1:2:4:-3:0:-1:0:-0.501465:-0.856445:0.209961:-0.1875:-0.1875:0.1875
1562063720486145:-3:-2:0:-8:-3:1:-2:0:-0.508789:-0.86084:0.212402:-0.375:-0.0625:0.0625
1562063720538151:-2:-3:-4:1:5:-5:-3:-3:-0.504883:-0.856445:0.214355:-1.1875:-0.25:0.5
1562063720586155:-1:1:-2:9:18:0:0:-1:-0.504395:-0.875488:0.203613:-2.75:-0.3125:0.5625
1562063720629160:1:-1:4:37:16:5:1:1:-0.515137:-0.883301:0.192871:2.625:-6.6875:4.3125
1562063720688166:2:4:8:13:25:5:5:1:-0.527832:-0.828613:0.204102:8.75:-5.5:0.625
1562063720725169:3:6:5:-28:-9:9:6:5:-0.528809:-0.85791:0.223633:12.8125:-15.6875:1.75
1562063720786175:7:-2:0:-48:-9:-12:-4:2:-0.503418:-0.794434:0.234863:16.4375:-19.75:0.0625
1562063720838181:8:6:-7:92:-28:20:9:6:-0.499512:-0.849121:0.241699:7.75:-19.8125:-2.5
1562063720887186:7:17:36:122:110:33:14:8:-0.481445:-0.870117:0.305664:2.5625:-14.0625:-1.0625
1562063720928190:-1:-2:-68:-20:-80:-21:-6:-4:-0.45459:-0.835938:0.307617:-5.3125:-5.9375:0.75
1562063720989196:-3:-9:-65:-63:12:12:5:2:-0.496582:-0.866211:0.262207:-13.3125:-0.4375:0.0625
1562063721025199:-4:0:61:-16:-2:-3:-3:-4:-0.51709:-0.86084:0.249512:-23.4375:-3.8125:5.4375
1562063721088206:16:22:44:102:17:19:8:10:-0.509766:-0.837402:0.237305:-13.8125:-3.25:0.1875
1562063721131210:3:-5:-99:-16:26:23:7:4:-0.476074:-0.853516:0.249023:-14.25:-3.6875:-1.0625
1562063721183215:8:17:58:-96:-54:-13:0:1:-0.485352:-0.881348:0.231934:-14.4375:-2.6875:-4.5
1562063721229220:-11:-9:-50:-77:-115:-22:-11:-6:-0.498535:-0.871094:0.207031:-7:1.9375:-1.125
1562063721288226:24:24:-30:67:42:31:17:15:-0.478027:-0.891602:0.231445:-7.4375:1.8125:0.6875
1562063721340231:-1:-1:4:-79:-8:-8:-5:-3:-0.486328:-0.861816:0.210938:-3.3125:2.0625:3.25
1562063721389236:-11:-2:-26:-10:-71:-10:-7:-11:-0.493164:-0.852051:0.20459:-6.4375:0.9375:0.375
1562063721431240:6:4:9:41:21:8:4:5:-0.491699:-0.85791:0.205078:-8.8125:-2.9375:-3.0625
1562063721491246:-8:-3:33:10:-40:-14:-11:-8:-0.491699:-0.867188:0.180176:-8.1875:-0.875:-6.125
1562063721543251:-8:-9:11:-43:34:-8:-10:-8:-0.47998:-0.882812:0.19873:-6.9375:2:-3.3125
1562063721589256:-6:-11:-20:-36:-21:-3:-4:-3:-0.459473:-0.869141:0.202637:3.5625:2.5625:0.9375
1562063721641261:13:2:2:-25:-1:2:-1:0:-0.43457:-0.918457:0.14502:23.9375:7.8125:3.625
1562063721689266:2:-1:-7:-9:-9:-2:4:-12:-0.506836:-0.813965:0.268066:48:18.3125:1.3125
1562063721731270:0:-1:-1:5:1:1:-4:-1:-0.494141:-0.875:0.260254:28.125:15.875:-4.4375
1562063721791276:-1:-5:-6:0:-9:-10:-1:3:-0.501953:-0.861328:0.212891:-3.875:28.4375:-5.8125
1562063721843281:-1:-5:-4:-1:-4:-2:-6:-6:-0.480469:-0.913574:0.26123:-1.25:36.5625:-3
1562063721888286:-1:-1:1:14:2:1:0:-11:-0.526855:-0.866699:0.125488:-13.6875:25.375:2.9375
1562063721948292:0:1:-4:-11:0:-4:-9:-2:-0.54834:-0.831055:0.134277:-5.375:7.8125:6.6875
1562063721993296:-3:-1:-2:4:0:0:-8:-2:-0.536621:-0.875:0.174805:-8.4375:-10.25:-1.5625
1562063722046301:-2:-4:-6:-25:-5:-1:-7:-1:-0.509766:-0.849121:0.205566:5.8125:-5.9375:-2.1875
1562063722091306:0:1:3:14:6:4:4:0:-0.491699:-0.873047:0.188965:-5.1875:-3.375:-3.875
1562063722151312:-1:3:2:4:-4:-5:-3:-3:-0.501465:-0.87207:0.189453:0.1875:1.25:-0.5625
1562063722191316:-1:0:2:6:3:1:0:0:-0.515625:-0.861816:0.188477:-1.875:2.75:-0.5
1562063722251322:-2:-2:-1:15:-2:-1:-6:-3:-0.519043:-0.861328:0.187012:-0.9375:1.75:0.625
1562063722294326:-1:-1:1:6:-7:-3:2:0:-0.510742:-0.875977:0.175781:-1.8125:-0.3125:0.25
1562063722353332:0:1:0:2:-1:0:0:1:-0.50293:-0.869141:0.186523:0.9375:-0.875:-0.125
1562063722392336:0:-1:-1:5:2:1:-4:3:-0.509277:-0.859863:0.183105:0.9375:0:0.5
1562063722451342:0:1:2:0:-2:-3:-3:-2:-0.509766:-0.870605:0.185547:-0.1875:1.125:0.8125
1562063722503347:-2:-1:-3:10:1:1:2:-2:-0.514648:-0.867676:0.174316:-1.6875:1.0625:1.0625
1562063722551352:-1:-3:0:-4:1:-2:-2:3:-0.515625:-0.86084:0.172852:0.875:-0.875:1.5625
1562063722593356:0:0:-1:5:9:3:0:2:-0.515137:-0.850586:0.183594:0.625:-1.625:0.4375
1562063722653362:0:1:1:8:-1:-1:1:-1:-0.513672:-0.862793:0.185059:0:-2:-0.25
1562063722705367:-1:0:3:3:1:0:4:2:-0.509277:-0.863281:0.179199:-0.625:-0.3125:-0.9375
1562063722751372:0:0:-2:-2:4:1:-3:1:-0.508301:-0.863281:0.186035:0.8125:0.25:-0.875
1562063722803377:0:2:1:0:3:2:-1:-1:-0.515137:-0.861816:0.183594:0.375:-0.5625:0.125
1562063722856382:-1:0:1:-5:-1:1:0:-3:-0.509277:-0.858887:0.180176:0.875:0.75:-0.0625
1562063722893386:-2:-1:1:3:0:1:1:-5:-0.514648:-0.867676:0.185059:-0.3125:-0.125:-0.25
1562063722953392:-1:0:-2:1:-4:-3:0:0:-0.51709:-0.864258:0.178223:-0.5625:-0.5625:-0.0625
1562063723005397:-2:0:1:-3:-13:-1:-2:-3:-0.51416:-0.859863:0.180176:-1.25:-1.1875:0.1875
1562063723054402:0:-1:0:-6:3:2:2:2:-0.51123:-0.865234:0.186035:-0.6875:-1.5625:0.5625
1562063723096406:2:0:0:2:1:0:-1:4:-0.512207:-0.866211:0.181641:0.3125:-0.5:0.25
1562063723156412:-2:-2:0:6:-7:-2:-6:-3:-0.51416:-0.859863:0.185059:-0.4375:-1.3125:0.4375
1562063723208418:0:-1:-1:-6:1:0:2:0:-0.513184:-0.862305:0.186523:0.875:-0.25:0.1875
1562063723253422:-1:-1:0:1:3:1:2:0:-0.508301:-0.867676:0.186035:-0.625:1:-0.5
1562063723306427:-1:0:-1:5:1:1:-1:0:-0.51416:-0.86084:0.182617:-0.5625:1.0625:-0.875
1562063723354432:-2:-1:0:0:0:0:-1:-2:-0.513184:-0.864746:0.17627:-0.4375:0:-0.6875
1562063723411438:-1:-2:-3:-5:-2:-1:0:-2:-0.515625:-0.865723:0.184082:-0.4375:-1.125:0.1875
1562063723456442:-1:-2:-2:-1:-6:-1:2:3:-0.506836:-0.858887:0.183105:-0.0625:0.4375:0.5
1562063723508448:-1:1:0:0:-1:0:-1:-1:-0.51123:-0.866211:0.182617:-0.75:-0.0625:0.125
1562063723553452:-1:-2:0:-6:1:-3:-7:0:-0.521484:-0.859375:0.1875:0.3125:-0.3125:0
1562063723614458:-1:1:0:-4:-3:1:2:-1:-0.512207:-0.86084:0.183594:-1.5625:-0.4375:-0.3125
1562063723665463:1:0:0:2:-1:1:0:0:-0.516602:-0.856934:0.188965:0.3125:-0.3125:-0.4375
1562063723714468:0:1:0:-2:-2:-1:-6:-19:-0.52002:-0.862793:0.186035:-2.375:0:-0.875
1562063723756472:-1:-1:-1:-5:-6:-1:1:5:-0.510254:-0.866211:0.181152:-0.6875:-0.75:-0.1875
1562063723816478:0:-1:1:-3:2:2:-2:2:-0.510254:-0.863281:0.18457:-0.25:0.75:-1
1562063723868484:1:1:-1:-3:3:-1:4:11:-0.514648:-0.868164:0.180176:-1.1875:-0.5625:-0.375
1562063723913488:-2:0:-1:8:-2:-3:-4:-1:-0.512695:-0.867188:0.182129:-0.875:-0.3125:-0.3125
1562063723962493:-1:-3:-2:3:2:2:-1:-2:-0.509766:-0.86377:0.182617:0.5:-0.375:0.125
1562063724021499:-1:1:-2:-1:-1:-2:-1:-1:-0.51416:-0.862793:0.181641:-0.25:0.375:0
1562063724071504:-2:0:0:-8:6:1:0:-2:-0.516113:-0.859863:0.184082:-0.3125:-0.625:-0.125
1562063724118509:-2:1:-1:5:3:-2:0:-4:-0.513672:-0.866699:0.181641:-0.625:0.4375:-0.4375
1562063724169514:0:-1:1:0:-1:-1:-1:-1:-0.511719:-0.861328:0.182129:-0.6875:-0.25:0.375
1562063724220519:-1:-3:0:0:3:2:-1:8:-0.51123:-0.866699:0.178223:-0.4375:0.875:0.25
1562063724261523:-1:0:-2:-3:2:-2:2:1:-0.51123:-0.86377:0.179199:0.1875:-0.0625:0.6875
1562063724321529:0:-1:1:-2:-2:-4:0:-5:-0.514648:-0.863281:0.183105:0.1875:-0.25:0.25
1562063724371534:1:-2:-1:-14:-6:-1:-2:-1:-0.519043:-0.859375:0.18457:0:0.25:0.3125
1562063724419539:-1:0:-1:-7:-5:-1:-7:-9:-0.509277:-0.865723:0.189453:0.5625:0.1875:0.1875
1562063724467544:1:-2:-5:-6:-6:-1:0:0:-0.523926:-0.857422:0.185547:-2.1875:0.1875:-0.4375
1562063724524549:-1:-1:-2:-1:-3:-1:1:3:-0.516113:-0.865234:0.175781:-1.8125:-0.0625:0.375
1562063724573554:-3:-1:1:18:0:-1:1:-1:-0.504883:-0.875488:0.183105:0.1875:-0.0625:-0.0625
1562063724621559:0:0:0:-3:2:-1:-1:0:-0.513184:-0.866699:0.177246:-1.3125:-0.1875:-0.25
1562063724671564:0:1:3:-2:-2:2:0:1:-0.51709:-0.859863:0.17334:1.1875:0.375:0.3125
1562063724719569:0:1:1:-4:-4:-1:-1:1:-0.513184:-0.862305:0.178711:-0.25:0.125:0.4375
1562063724768574:-2:0:2:8:1:-1:0:3:-0.513184:-0.854492:0.176758:0.5:0.5625:0.25
1562063724825579:1:1:1:3:4:-1:-1:-1:-0.513672:-0.866211:0.175293:-0.5:0.5625:-0.25
1562063724873584:-1:0:-1:-6:-3:-1:-1:-1:-0.510254:-0.857422:0.177246:0.5:0.0625:-0.125
1562063724921589:-1:1:6:3:3:3:1:5:-0.515625:-0.866699:0.182617:-1.125:-0.25:-0.0625
1562063724971594:-1:-1:-2:0:-2:2:1:0:-0.515137:-0.859375:0.183105:0.875:-0.25:0.125
1562063725021599:-1:-2:-2:4:-2:-2:-4:0:-0.512695:-0.85791:0.179688:0.0625:0.4375:-0.4375
1562063725081605:-1:0:3:2:4:-1:-3:2:-0.51709:-0.862793:0.188477:0.6875:0.1875:0
1562063725124609:0:-1:1:6:-1:-1:-1:-1:-0.522461:-0.85791:0.183105:0.1875:0.375:0.125
1562063725183615:-3:0:-1:-4:-4:0:2:6:-0.512207:-0.863281:0.181641:0.4375:-0.0625:-0.0625
1562063725234620:-1:0:-3:-17:-4:-1:-1:-1:-0.518555:-0.86084:0.179688:-0.4375:0.3125:-0.5
1562063725282625:-1:-1:-1:5:2:-2:-1:1:-0.521484:-0.86084:0.182129:0.3125:0.0625:-0.5
1562063725330630:0:0:-3:2:-4:1:-3:-3:-0.510742:-0.863281:0.172852:-0.3125:0:0.125
1562063725381635:0:0:0:-7:-1:2:-1:0:-0.515137:-0.861328:0.181641:0.625:0.25:0.1875
1562063725437641:-1:-2:-2:3:-1:-2:0:0:-0.518555:-0.86377:0.176758:-0.625:0:0.25
1562063725483645:-1:2:1:17:-3:1:5:7:-0.518555:-0.862793:0.179199:0.0625:0.0625:-0.5
1562063725533650:-1:-1:1:-2:5:1:-2:-4:-0.516113:-0.861328:0.180176:-0.0625:-1.75:0.25
1562063725581655:-3:-5:-9:-111:-18:-7:-7:-5:-0.520996:-0.872559:0.157227:-2.3125:-4.3125:0.625
1562063725630660:-18:-3:-4:-6:-4:-2:0:-8:-0.551758:-0.859375:0.134766:20.75:-21.375:3.5625
1562063725683665:-6:-7:6:69:31:5:2:6:-0.566406:-0.845215:0.164551:21.0625:-32.1875:2.0625
1562063725737671:-12:2:0:-115:-33:-9:-2:0:-0.440918:-0.822754:0.259766:4.75:-53.375:-12.75
1562063725784675:-8:3:69:-28:22:-4:-4:-6:-0.507324:-0.857422:0.354004:13.8125:-51.75:-8.0625
1562063725834680:-39:-21:-32:127:41:-7:-9:-13:-0.427246:-0.880859:0.342285:-14.8125:-24:-0.375
1562063725883685:-2:0:46:28:2:-13:-6:-1:-0.414062:-0.842773:0.345703:-1.625:-13.3125:-1.0625
1562063725940691:11:2:-37:17:-18:-7:-1:1:-0.44043:-0.87207:0.318359:-15.125:-0.8125:0.0625
1562063725983695:-6:-27:-71:-128:-46:-38:-14:-10:-0.472168:-0.848633:0.29248:-23.1875:2.6875:1
1562063726043701:24:19:2:-128:-81:22:16:14:-0.461426:-0.854004:0.249512:-16.75:2.9375:-1.25
1562063726083705:-22:-18:-50:-31:-83:-17:-3:-11:-0.462891:-0.880859:0.253906:-16.375:2.125:-4.375
1562063726143711:-8:-12:-32:48:52:-18:-8:-13:-0.45166:-0.896484:0.208984:-4.75:1.625:-2.125
1562063726192716:4:0:-2:-39:-54:1:-2:1:-0.441406:-0.894043:0.242188:17.0625:-0.375:-9.1875
1562063726244721:0:-2:-18:12:-38:3:-3:-1:-0.458984:-0.832031:0.250977:8.0625:-1.1875:9
1562063726283725:11:2:17:33:0:-1:-2:2:-0.436523:-0.850098:0.294922:3.625:2.125:2.875
1562063726343731:10:6:2:16:-1:7:9:25:-0.446777:-0.856934:0.319336:22.0625:20.625:-9.875
1562063726395736:1:1:3:0:2:2:-3:-9:-0.465332:-0.873047:0.271973:19.375:33.25:-4.875
1562063726447742:-5:2:1:5:-3:-9:-16:-3:-0.457031:-0.914551:0.251465:8.4375:37.25:6.9375
1562063726492746:2:1:2:-13:-4:-2:-15:16:-0.532715:-0.854004:0.19043:14.4375:34.0625:16.1875
1562063726545751:-2:0:2:4:-12:-3:-16:-6:-0.518555:-0.851074:0.197266:-16.8125:0.625:26.3125
1562063726598757:1:0:-7:-6:2:-5:-17:-3:-0.525879:-0.817383:0.256348:3.625:-11.5:9.5625
1562063726645761:0:4:1:-61:0:-5:-1:4:-0.525879:-0.793457:0.282227:-3.375:-4.625:4.125
1562063726696766:-1:0:1:7:2:1:-5:4:-0.522949:-0.843262:0.23584:-3.8125:5.1875:-0.9375
1562063726746771:-1:-1:-2:14:-1:1:3:-24:-0.525391:-0.830078:0.22998:-1.625:4.25:-1.125
1562063726801777:0:2:-2:2:2:-3:-3:3:-0.537598:-0.846191:0.239746:2.4375:3.4375:-1.5625
1562063726845781:-3:0:1:13:-2:-6:-4:-1:-0.536621:-0.842285:0.213379:-2.1875:1.75:0
1562063726899787:-1:-2:-1:-15:-1:0:0:-3:-0.529785:-0.842285:0.23584:-0.75:1.25:-0.4375
1562063726946791:0:1:-1:-2:0:1:9:6:-0.51709:-0.836914:0.226074:-2.625:2.8125:-1.25
1562063727007798:-2:-2:0:-9:-5:-4:-8:-10:-0.525391:-0.849609:0.20752:-2.625:0.1875:-1
1562063727056802:-2:0:-1:1:-2:-2:-4:-5:-0.526367:-0.851074:0.222168:-1.0625:-1.125:0.1875
1562063727107808:0:-1:-2:-1:-2:5:2:4:-0.526855:-0.835449:0.229004:-1.0625:0.0625:-0.625
1562063727145811:0:-2:-4:-9:-1:-2:4:6:-0.533691:-0.845215:0.222168:-0.6875:0.875:-1.4375
1562063727205817:0:0:-1:-7:-1:-4:2:9:-0.526367:-0.851074:0.212402:-1.1875:0.75:-0.9375
1562063727258823:1:1:2:-1:2:1:-2:-2:-0.525879:-0.845703:0.213379:-1:-1.25:-0.9375
1562063727306827:0:0:-2:-1:3:5:4:8:-0.525879:-0.845215:0.218262:-1.0625:-1:-1.6875
1562063727355832:0:0:1:-2:3:-1:-6:-4:-0.521484:-0.850586:0.22168:-1:0.3125:-2.3125
1562063727407838:2:3:2:1:-5:0:1:-2:-0.525391:-0.854492:0.215332:-1.875:0.25:-2.4375
1562063727462843:1:-1:1:-1:-5:0:1:-3:-0.520996:-0.853516:0.209961:-0.6875:1:-1.6875
1562063727505847:0:-1:0:-5:-8:0:7:5:-0.517578:-0.853516:0.217285:-1.5:0:-0.5625
1562063727558853:-1:0:3:1:1:-1:-2:0:-0.521484:-0.84668:0.222656:-0.375:0.4375:-0.9375
1562063727606857:0:0:4:-4:-4:-3:-6:-9:-0.522949:-0.851074:0.222656:-1.8125:0.9375:-1
1562063727655862:0:2:0:1:5:-3:-5:-7:-0.514648:-0.855957:0.208008:0.4375:1.75:-0.625
1562063727708868:-1:-1:-1:-3:-4:-3:1:2:-0.516602:-0.851074:0.215332:-0.625:0.625:0.375
1562063727761873:-1:0:-2:-2:-4:0:-1:3:-0.520508:-0.855469:0.210938:-0.1875:0.3125:0.25
1562063727805877:1:1:0:-2:-1:-3:1:-1:-0.522461:-0.842773:0.208008:0.625:0.8125:0
1562063727865883:-3:-3:-3:-10:-7:0:-1:-1:-0.514648:-0.853027:0.216309:1.4375:-0.25:-0.5625
1562063727909888:1:-2:-6:-7:-1:-1:0:9:-0.522461:-0.851562:0.211426:0.0625:-0.5625:-0.375
1562063727965893:0:-1:-2:-9:-5:1:-1:-2:-0.52002:-0.852051:0.215332:0:0.625:0.0625
1562063728007898:1:0:1:-12:-2:-2:0:6:-0.519043:-0.852539:0.219727:0.5625:1.125:0.375
1562063728061903:0:0:0:1:-1:3:3:-1:-0.522949:-0.845703:0.20459:0.6875:1.125:0.6875
1562063728105907:-1:-2:0:0:4:0:-3:-5:-0.520508:-0.849609:0.209961:0:1.0625:0.3125
1562063728165913:0:-1:-2:-2:-2:-1:-2:-5:-0.524902:-0.84375:0.210449:1.375:-0.375:0.1875
1562063728217919:0:1:-1:4:1:-1:-5:-2:-0.525391:-0.848633:0.219238:-0.5625:-0.8125:-0.375
1562063728269924:0:-2:-3:7:0:-2:-2:3:-0.519531:-0.852051:0.209473:-0.3125:-0.75:-0.25
1562063728307928:-2:-2:-6:-1:-1:-5:-5:-4:-0.520508:-0.848145:0.214355:-0.6875:-0.8125:0.1875
1562063728368934:0:0:-1:1:-6:-2:-1:3:-0.516602:-0.849121:0.21875:-0.125:0.25:0.25
1562063728408938:0:0:3:2:0:2:2:0:-0.526855:-0.842773:0.214355:-0.5625:0:0.9375
1562063728468944:0:0:-1:-2:6:3:3:1:-0.516113:-0.850098:0.212891:-0.4375:0.0625:0.5
1562063728518949:-1:0:0:3:-7:-3:-2:-1:-0.525391:-0.84082:0.206055:-0.625:-0.5:-0.5
1562063728571954:-1:0:0:2:-1:3:-3:-4:-0.53125:-0.852051:0.212402:-0.125:-1.3125:-1.9375
1562063728607958:1:0:1:1:-3:0:0:-1:-0.521484:-0.848145:0.217285:-0.875:-1.3125:-1.75
1562063728668964:-2:-3:-4:3:-1:-3:1:7:-0.512695:-0.851074:0.215332:0.4375:-0.75:-1.625
1562063728720969:-1:-2:-3:-2:3:-4:-2:-2:-0.513184:-0.849121:0.210449:0.3125:-0.5:-1.875
1562063728772974:-1:-2:-2:-4:-5:-2:-6:-10:-0.508301:-0.852539:0.220703:1.375:0.75:-1.6875
1562063728810978:1:1:1:-4:7:2:2:1:-0.516113:-0.853516:0.223145:-0.25:0.1875:-1.0625
1562063728871984:1:2:-1:-11:1:4:3:1:-0.509766:-0.85791:0.217285:0:1.9375:-0.8125
1562063728908988:1:0:-3:-8:-5:1:0:1:-0.517578:-0.856445:0.217285:0.6875:1.9375:-1.125
1562063728967994:-1:-2:-2:1:-5:-3:0:-3:-0.521973:-0.856445:0.214844:-0.5:0.625:-1.375
1562063729020999:-1:0:0:0:4:-3:-2:0:-0.518555:-0.848633:0.214355:-0.25:-1.5:-0.9375
1562063729073004:-1:-1:-1:11:3:0:-3:-1:-0.513672:-0.849121:0.21875:0.3125:-0.8125:-1.1875
1562063729111008:0:-1:-3:-1:4:1:-2:-3:-0.510254:-0.85498:0.214355:0:-1.5625:-1.75
1562063729171014:0:-2:-2:-7:1:0:-2:-1:-0.51123:-0.859375:0.222168:0.0625:-0.9375:-1.75
1562063729211018:0:-2:0:2:0:1:2:0:-0.506836:-0.855957:0.214844:0.125:0.25:-2.0625
1562063729272024:-1:0:1:1:5:2:-2:0:-0.507324:-0.851562:0.214844:0.6875:-0.3125:-1.1875
1562063729321029:-1:1:2:-4:-3:1:0:-13:-0.513672:-0.85791:0.226562:0.125:0.6875:-0.6875
1562063729372034:-1:1:-1:3:5:1:2:1:-0.511719:-0.856445:0.217773:0.5625:0.5:0.4375
1562063729412038:0:0:-3:-4:1:1:0:3:-0.509766:-0.858398:0.222168:-0.25:1.125:1.125
1562063729471044:2:1:-2:-9:-2:-2:-3:-1:-0.51416:-0.855469:0.216797:0:0.6875:0.9375
1562063729525049:-1:-1:2:-1:2:2:-2:-9:-0.51123:-0.851074:0.219727:-0.0625:0.5625:0.8125
1562063729571054:-1:1:2:-1:2:1:0:0:-0.51416:-0.849609:0.222168:0.4375:0.5625:0.4375
1562063729614058:0:-1:0:-3:0:2:0:-1:-0.515137:-0.858398:0.209473:-0.375:0.8125:0.6875
1562063729673064:1:0:0:-7:-5:-1:1:-6:-0.510254:-0.851074:0.213867:0:0.8125:0.375
1562063729727069:-3:-1:-2:0:9:-1:0:-2:-0.518555:-0.844727:0.221191:0.3125:0.25:-0.25
1562063729774074:-1:-2:-5:-15:-4:4:1:1:-0.51416:-0.856445:0.214844:-0.625:-0.0625:-0.9375
1562063729825079:1:0:-1:-5:0:-3:0:-2:-0.517578:-0.854492:0.223145:-0.4375:0:-0.5
1562063729875084:0:0:-1:-2:2:-1:-4:-2:-0.515625:-0.862793:0.217285:-1:-0.4375:0
1562063729929090:-1:0:1:3:1:0:0:-2:-0.512207:-0.850098:0.220215:-0.625:0.5:0.0625
1562063729973094:1:-2:-5:-11:2:0:-4:-1:-0.516602:-0.853027:0.220215:0.4375:0.3125:-0.5625
1562063730027099:-1:0:-1:-4:-4:-2:0:3:-0.518066:-0.85498:0.230957:0.0625:-0.625:-0.375
1562063730071104:-1:0:0:-6:1:0:0:-3:-0.513672:-0.853027:0.213867:-0.25:-0.0625:-0.25
1562063730123109:-2:1:0:7:-1:0:0:0:-0.508301:-0.856445:0.213867:0.6875:-0.5625:0.375
1562063730184115:-1:0:-2:-6:-3:-4:-1:1:-0.512207:-0.854004:0.21875:0.1875:0.4375:-0.1875
1562063730235120:0:-1:0:2:-9:-1:-1:-1:-0.512695:-0.854004:0.219727:0:0.25:0.125
1562063730273124:-1:-2:-2:-4:4:-1:-1:5:-0.51709:-0.851074:0.21582:0.5:0.1875:-0.0625
1562063730333130:1:-1:1:-3:3:4:4:0:-0.510254:-0.855469:0.222168:0.125:0.1875:-0.1875
1562063730375134:-1:0:-2:2:-2:0:0:-4:-0.514648:-0.845703:0.219727:0.4375:0.25:-0.875
1562063730434140:-3:0:0:5:5:0:1:11:-0.513672:-0.859863:0.22168:0:0.1875:-0.6875
1562063730484145:1:1:-1:-11:-31:-3:-2:0:-0.513672:-0.855469:0.216309:0.375:0.3125:-0.5625
1562063730537150:0:-2:-8:5:21:2:-7:-11:-0.52832:-0.838379:0.207031:-9.5625:-0.75:0.9375
1562063730573154:-1:1:3:0:11:1:1:2:-0.515625:-0.875977:0.212891:0.25:0.6875:1
1562063730634160:-2:-1:-1:3:-1:-1:-1:0:-0.509766:-0.847168:0.216309:-0.5:1.625:0.5
1562063730677164:1:-1:2:-1:11:-4:-5:0:-0.527344:-0.845215:0.209961:-0.625:0.3125:-0.1875
1562063730734170:-2:-1:-4:-5:4:1:-4:-1:-0.529785:-0.841797:0.204102:-2.0625:-0.8125:0.375
1562063730775174:2:2:3:-1:-8:0:1:-2:-0.518555:-0.853516:0.199707:-0.6875:-4.0625:0.6875
1562063730836180:-1:0:-3:-51:-2:2:3:6:-0.510254:-0.853027:0.212402:9.3125:-8.5:0.25
1562063730874184:7:-4:-3:-39:5:-8:-4:-5:-0.516602:-0.859375:0.192383:-0.875:-13.6875:-3.125
1562063730937190:-3:-3:9:36:-7:-6:-3:-5:-0.530273:-0.824219:0.237793:17:-29:-3.5
1562063730974194:-3:0:-9:67:67:-10:-6:-3:-0.513672:-0.826172:0.286621:10:-35.5625:-6.1875
1562063731034200:-15:-16:-53:-128:-68:-6:-2:-3:-0.441895:-0.854004:0.321289:10.875:-36.0625:-4.25
1562063731076204:12:22:1:52:60:48:18:13:-0.445312:-0.847656:0.334473:-13.75:-17.125:-1.625
1562063731136210:-37:-35:-15:-58:-56:18:-4:-12:-0.449219:-0.814453:0.296875:-55.125:-12.0625:3.1875
1562063731179215:5:-7:-24:46:-128:-14:9:4:-0.417969:-0.936523:0.241211:-45.9375:-13.9375:-22.3125
1562063731237220:11:-11:13:-13:63:-26:-9:-10:-0.467773:-0.878418:0.228516:-9.6875:-5.1875:-14
1562063731274224:2:11:53:55:17:4:-2:2:-0.401855:-0.92041:0.232422:-1.0625:-2.6875:-1.25
1562063731338231:-8:-13:-21:-76:-43:2:-16:-14:-0.425781:-0.881348:0.256836:0.75:0.25:-7.8125
1562063731391236:9:32:101:91:72:-17:-3:4:-0.44043:-0.882324:0.218262:0.0625:3.75:-4.1875
1562063731435240:-2:-6:-45:-41:-73:8:8:4:-0.413574:-0.933105:0.241211:2.5625:1.875:-3.9375
1562063731491246:-4:-6:-29:83:62:22:4:4:-0.421875:-0.91748:0.230469:-1.1875:-0.25:2.125
1562063731536250:7:18:-43:-69:-23:-19:9:6:-0.427246:-0.88916:0.233887:4.375:2.4375:2.0625
1562063731594256:-5:-1:32:-25:-66:-7:-4:-4:-0.428223:-0.902832:0.227539:0.1875:1.1875:1.875
1562063731639261:-1:5:31:-36:-13:-8:-4:2:-0.38623:-0.862793:0.23291:8.875:5.4375:0.0625
1562063731690266:22:-9:5:-84:-10:-12:3:-12:-0.437988:-0.969727:0.224121:38.9375:5.0625:1.5
1562063731736270:16:6:12:41:5:5:-18:13:-0.424316:-0.865234:0.295898:40.4375:23.75:5.75
1562063731796276:-15:1:7:-1:1:4:4:-20:-0.456055:-0.911133:0.308105:23.3125:34.125:6.75
1562063731836280:3:0:-10:-5:1:-3:8:39:-0.541992:-0.827637:0.195801:-5.1875:14:15.3125
1562063731896286:-12:-2:-3:11:-1:-2:-14:-11:-0.467773:-0.875977:0.276367:-7.125:-0.4375:8.4375
1562063731938291:4:0:6:-4:-4:3:2:2:-0.477051:-0.80127:0.274902:1.625:-1.6875:0
1562063731999297:-4:-2:-3:-9:-6:-2:-9:-2:-0.500977:-0.797363:0.253418:-26:-5.0625:-9.25
1562063732035300:1:2:1:6:0:-2:-5:-9:-0.473633:-0.884766:0.268555:8:4.5625:-3.125
1562063732096306:-2:-2:3:3:0:-2:2:-9:-0.450195:-0.833984:0.260254:1.1875:3.9375:-1.75
1562063732137310:3:5:-1:-21:8:4:3:6:-0.472168:-0.881348:0.241211:-1.125:8.25:-1.625
1562063732197316:-3:-2:-1:-2:-8:0:19:-1:-0.485352:-0.84375:0.236328:0:4.125:-0.3125
1562063732239321:-5:1:-3:-4:5:2:-2:-2:-0.480957:-0.873047:0.242188:-1.0625:1.9375:0
1562063732298327:-2:-8:-10:-3:-5:-3:-7:-4:-0.46875:-0.858887:0.23877:-0.4375:1.625:-0.0625
1562063732351332:3:0:4:10:-6:1:4:9:-0.476562:-0.871094:0.22998:-2.4375:0.625:-1.0625
1562063732396336:-1:-1:-2:-2:2:-1:-1:-1:-0.482422:-0.862793:0.241699:-0.75:0.4375:-0.125
1562063732441341:0:-1:2:0:0:-2:-3:-5:-0.474609:-0.880859:0.23877:-2.5625:-0.1875:-0.1875
1562063732501347:0:-1:-1:3:0:1:-1:-1:-0.479492:-0.870117:0.244629:0.625:1.375:0.125
1562063732553352:-3:0:2:25:1:-3:-1:-3:-0.480957:-0.874512:0.232422:-1.4375:1.4375:0.9375
1562063732599357:0:-1:0:-4:-6:0:0:3:-0.486816:-0.866211:0.23877:-1:1.4375:1.1875
1562063732651362:-1:-2:-5:-4:0:1:0:-2:-0.473633:-0.872559:0.230469:-0.75:2:1.75
1562063732699367:-3:-2:-2:9:0:-3:-1:0:-0.486328:-0.863281:0.23584:0.5625:2.0625:0.9375
1562063732741371:-1:1:0:-4:-6:-4:-4:-3:-0.488281:-0.87207:0.224121:-0.8125:1.9375:0.6875
1562063732801377:0:-1:1:-5:6:1:-1:2:-0.486328:-0.872559:0.225098:-0.375:1:1.6875
1562063732853382:0:-1:-2:7:9:-1:-1:-2:-0.484375:-0.868164:0.229492:0.4375:1.4375:2
1562063732899387:0:0:-7:-24:2:1:-2:4:-0.491211:-0.863281:0.230469:-0.8125:0.75:2.125
1562063732958393:0:2:1:-2:5:2:1:3:-0.492676:-0.861328:0.228516:1.4375:1.125:1.4375
1562063732999397:-1:-1:1:2:-1:-2:-6:-6:-0.494629:-0.862793:0.23291:-1.3125:0.25:0.875
1562063733058403:1:0:3:4:2:1:-3:-4:-0.494141:-0.859863:0.236328:0.625:0.625:0.625
1562063733101407:1:1:-1:-1:3:2:-3:-2:-0.493164:-0.858887:0.229492:-0.1875:0.25:-0.4375
1562063733160413:0:-1:2:-6:-2:-1:-2:-2:-0.495605:-0.861328:0.228027:0.6875:-0.1875:-0.375
1562063733199417:0:-3:-3:9:-3:0:-3:1:-0.490723:-0.869141:0.233887:-0.75:-0.0625:-0.1875
1562063733258423:-1:-1:-1:3:-6:3:1:-2:-0.491211:-0.86084:0.226562:0.6875:-0.1875:-0.1875
1562063733304427:-1:0:-2:-2:2:-3:2:0:-0.497559:-0.858887:0.233398:-0.25:0.0625:0.625
1562063733356432:1:-1:1:-3:0:-3:0:-2:-0.496094:-0.859375:0.23584:0.375:0:0.8125
1562063733401437:-1:-1:0:-2:2:1:1:-3:-0.490723:-0.858887:0.224121:-0.3125:0.75:0.6875
1562063733461443:1:-1:-2:-3:-2:0:1:2:-0.496094:-0.856934:0.228516:0.375:0.25:0.9375
1562063733502447:-1:1:-2:5:4:1:-2:1:-0.5:-0.858887:0.233398:-0.6875:0.5:0.5
1562063733561453:0:-2:-3:-2:4:4:3:1:-0.498047:-0.856445:0.234863:0.5:0.0625:0.1875
1562063733603457:0:0:0:2:4:4:1:0:-0.499512:-0.864258:0.226074:-0.375:0.0625:-0.375
1562063733656462:-1:0:-2:2:3:1:-4:-20:-0.496094:-0.86084:0.230957:-0.75:-0.5625:-0.0625
1562063733700467:0:-1:2:0:-3:-1:-3:4:-0.49707:-0.856934:0.23584:0.5625:-0.0625:0.0625
1562063733761473:1:0:0:-4:-1:1:0:0:-0.498047:-0.864258:0.231445:-2.25:0.75:0.125
1562063733801477:0:0:0:5:2:0:-2:3:-0.49707:-0.852051:0.227539:-0.5:0.3125:-0.125
1562063733861483:-2:0:1:-11:-12:0:-1:5:-0.497559:-0.856445:0.227539:-0.8125:0:0.25
1562063733904487:0:0:1:2:1:1:2:3:-0.496094:-0.854004:0.235352:0.8125:0.375:0.5625
1562063733964493:-1:-2:-3:-5:-4:0:2:-3:-0.495117:-0.858887:0.236328:0.3125:0.5625:0.0625
1562063734000497:1:-2:0:-1:3:0:1:2:-0.503418:-0.85791:0.230957:0.625:0.125:0.0625
1562063734060503:1:0:-1:-3:-2:-2:-1:-3:-0.503906:-0.857422:0.233398:0.1875:-1:0
1562063734113508:-3:1:3:5:-9:-2:-5:-3:-0.498047:-0.85791:0.237305:-0.3125:0.25:-0.125
1562063734159513:0:0:1:-22:-13:-4:-3:-3:-0.499023:-0.850098:0.233398:0.375:0.625:0
1562063734219519:-2:0:0:1:2:2:-3:0:-0.505371:-0.856934:0.227539:1.3125:0.1875:-0.4375
1562063734264523:-1:0:-3:-3:-2:0:1:1:-0.5:-0.859863:0.238281:-0.75:-0.8125:-0.75
1562063734316528:1:0:-1:-7:0:-1:-1:0:-0.495605:-0.86084:0.236816:-0.25:0.0625:-0.6875
1562063734364533:-1:0:0:2:8:2:2:4:-0.495117:-0.860352:0.23584:0.1875:0:-0.1875
1562063734406537:-2:-3:-2:1:0:1:-5:-9:-0.500977:-0.861816:0.23877:-0.875:0.5625:0.125
1562063734466543:-2:1:2:4:-5:2:0:0:-0.496094:-0.855957:0.237305:0.375:0.25:0.375
1562063734503547:-2:-3:-9:-12:-5:-2:-2:-3:-0.503906:-0.854004:0.237305:-0.25:0.6875:-0.0625
1562063734563553:0:0:2:7:-2:-4:3:-1:-0.498535:-0.86084:0.232422:0:-0.125:0.125
1562063734615558:-1:1:2:-2:1:-1:0:-3:-0.501953:-0.855469:0.236328:-0.5:0.0625:-0.4375
1562063734664563:1:0:2:11:-10:-2:0:2:-0.505371:-0.860352:0.239258:-0.75:0.25:-0.625
1562063734707567:-2:-1:0:-8:-4:-1:-4:1:-0.494629:-0.862305:0.233398:-0.625:0.25:-0.3125
1562063734768574:1:2:1:-5:3:-2:1:4:-0.493164:-0.866211:0.234375:-0.9375:-0.1875:-0.125
1562063734818579:-1:0:2:2:6:0:-2:0:-0.501465:-0.858398:0.235352:-0.375:-0.25:0.1875
1562063734864583:-1:0:1:-2:-2:-3:3:2:-0.498535:-0.85791:0.233887:-0.4375:0.25:0.0625
1562063734916588:-1:-2:0:-5:3:0:1:12:-0.499023:-0.854492:0.22998:-0.1875:0.625:-0.0625
1562063734964593:0:1:2:-1:-2:0:1:-2:-0.500977:-0.858398:0.231445:-0.1875:-0.0625:-0.3125
1562063735006597:0:-2:2:-5:-9:1:1:5:-0.499023:-0.850098:0.225098:-0.1875:-0.375:-0.8125
1562063735066603:-1:-3:-3:-8:-2:0:0:1:-0.5:-0.859375:0.235352:-0.6875:-0.875:-1.25
1562063735118609:1:0:1:-1:-5:-1:1:-3:-0.502441:-0.86084:0.234375:-1.75:-1.25:-1
1562063735166613:-2:0:0:6:-19:-4:-2:0:-0.495605:-0.854492:0.235352:-0.1875:-0.375:-0.8125
1562063735216618:-1:1:0:9:4:-5:-5:-3:-0.496094:-0.861328:0.239746:-0.0625:-0.125:-0.4375
1562063735269624:-2:-1:-2:-8:3:-1:-1:-9:-0.498047:-0.86084:0.23584:-0.8125:-0.25:-0.375
1562063735320629:1:-2:-1:9:-17:-6:-2:-6:-0.493652:-0.856934:0.236328:-0.375:0.8125:0.125
1562063735367633:-2:-1:-2:-9:2:1:-6:-4:-0.505859:-0.85498:0.231445:0.8125:0.5:0.0625
1562063735419639:0:-1:0:0:-1:1:0:1:-0.496094:-0.867676:0.231934:-1.9375:0.1875:-0.5625
1562063735466643:0:0:0:-2:-1:-2:0:-1:-0.498535:-0.850586:0.23291:-1.25:0:-0.8125
1562063735526649:-1:0:-2:-15:-4:2:-1:3:-0.499512:-0.862305:0.232422:-0.5:0.5:-0.5
1562063735572654:0:-2:-3:-1:1:0:4:-2:-0.489258:-0.86377:0.224609:0.1875:0.1875:0
1562063735621659:-2:-1:-2:-4:1:0:-5:-29:-0.494141:-0.860352:0.234375:-0.1875:0.4375:-0.4375
1562063735665663:-1:-2:-3:-6:-8:-3:2:4:-0.502441:-0.857422:0.233398:0.25:0.9375:0.0625
1562063735719669:1:0:0:-4:1:2:3:6:-0.496582:-0.856934:0.22998:-0.375:0.625:0.1875
1562063735766673:1:0:1:-2:3:1:-1:4:-0.498535:-0.854492:0.231445:0.9375:0.6875:0.75
1562063735826679:-1:-1:0:-1:2:-1:-3:-3:-0.499023:-0.854492:0.230469:-0.25:1:0.125
1562063735869684:-2:1:-4:-14:-6:-3:-4:3:-0.496582:-0.85791:0.231445:0.625:0.25:-0.25
1562063735920689:-1:-1:-4:-20:2:-1:0:3:-0.503418:-0.864258:0.226074:-1.0625:0.125:0.0625
1562063735965693:1:-1:-5:0:4:3:4:0:-0.5:-0.854004:0.228027:-0.5625:0.0625:1.0625
1562063736025699:1:1:1:13:11:5:3:2:-0.49707:-0.856445:0.219727:-1.8125:-0.4375:0.6875
1562063736071704:-1:-1:2:-8:-11:-3:-2:0:-0.508301:-0.848633:0.219238:-0.5625:-1.75:1.125
1562063736124709:-2:-1:0:0:8:-2:-1:-4:-0.507812:-0.850098:0.228516:0.8125:-3.75:0.9375
1562063736168714:-1:0:4:39:-14:-3:0:1:-0.514648:-0.86377:0.199707:1.0625:-7.5:1.9375
1562063736220719:-6:-2:8:89:5:2:6:0:-0.514648:-0.853516:0.229492:12.125:-6:3.3125
1562063736269724:9:4:-2:-61:17:12:7:3:-0.558105:-0.792969:0.26123:25.5625:-19.8125:2.875
1562063736329730:0:-5:-52:-84:-74:7:7:-2:-0.513184:-0.765137:0.222168:14.8125:-33.4375:-2.6875
1562063736376734:1:-9:-71:-85:-100:-25:-11:-1:-0.275879:-0.942871:0.463867:6:-1.375:-25.9375
1562063736423739:-34:-52:-108:10:-17:-4:-15:-25:-0.559082:-0.727051:0.191406:-60.75:7.5:4.0625
1562063736468744:6:9:47:18:28:-15:3:0:-0.495117:-0.932129:0.26709:-1.1875:8.3125:-1.6875
1562063736528750:-6:-10:-43:-61:40:-14:-10:-4:-0.473145:-0.821289:0.208008:-25.75:-1:2.5625
1562063736568754:6:1:-42:77:87:20:13:6:-0.458984:-0.862793:0.219238:4.125:1.375:-6
1562063736629760:2:6:24:11:-33:14:11:5:-0.449219:-0.885742:0.218262:-2.25:-1.375:-5.625
1562063736671764:9:13:14:-85:-65:0:0:3:-0.455566:-0.888184:0.208496:0:-0.0625:-1.9375
1562063736724769:7:11:27:82:63:9:26:5:-0.464355:-0.90332:0.209961:4.3125:0.1875:0.4375
1562063736768774:0:-2:-20:13:17:1:-10:-3:-0.45166:-0.857422:0.226562:7.1875:6.3125:1.25
1562063736829780:-5:-12:-60:-54:-33:-5:-2:-4:-0.455566:-0.878418:0.216309:16.6875:5.5:-0.375
1562063736881785:4:1:-3:-37:12:-1:5:4:-0.46582:-0.892578:0.255371:41.125:4.4375:5.1875
1562063736928790:17:3:2:65:10:7:-11:15:-0.441895:-0.868652:0.291016:23.3125:12.4375:-7.6875
1562063736985795:7:3:3:18:2:-3:11:-2:-0.473145:-0.913086:0.312988:31.4375:10.625:-2.5625
1562063737032800:-5:-1:-2:-8:5:-7:-10:0:-0.461426:-0.870117:0.28125:-2.6875:1:-1.1875
1562063737084805:8:-9:-3:16:10:-9:-13:-10:-0.477051:-0.890625:0.291504:8.625:3.125:-1.6875
1562063737128810:2:3:1:-8:-9:0:10:-6:-0.449219:-0.838867:0.320312:-2.8125:-2.6875:0.5
1562063737174814:-1:-1:-1:41:8:0:-3:-2:-0.455078:-0.852539:0.312012:-10:12.25:-1.9375
1562063737237820:0:-1:0:2:-5:2:-4:5:-0.481934:-0.855469:0.273926:-6.1875:10.625:1.75
1562063737286825:-5:1:2:28:2:-1:-6:1:-0.476562:-0.840332:0.285645:-0.0625:11.875:-1.5625
1562063737332830:-2:-1:0:-4:0:0:-1:-3:-0.486328:-0.873535:0.227539:-9.9375:13.75:4.75
1562063737383835:-1:0:-6:-30:-2:0:-5:2:-0.496094:-0.836914:0.233887:-3.375:-1.9375:1.5
1562063737432840:-1:0:-3:-13:-2:0:6:9:-0.489746:-0.865234:0.266113:2.375:-2.5:-0.75
1562063737488846:-2:-3:1:15:12:3:7:-1:-0.481445:-0.852539:0.268555:0.125:1.3125:-1
1562063737537850:0:-2:0:-11:4:6:4:4:-0.482422:-0.863281:0.255371:0.375:0.4375:-0.375
1562063737586855:0:-2:1:-7:-7:1:-5:6:-0.482422:-0.856445:0.256348:-0.6875:1.125:-0.625
1562063737634860:-3:-3:-11:-10:5:-4:-4:-5:-0.490234:-0.855957:0.246094:-3.3125:0.25:-0.125
1562063737694866:-1:-2:-1:-2:-4:-1:1:4:-0.488281:-0.866699:0.24707:-1.4375:-1:0.125
1562063737743871:-1:-2:-1:8:4:-2:-1:-3:-0.482422:-0.854004:0.256836:0.125:-0.8125:-0.375
1562063737788876:1:0:1:1:-4:-4:-3:10:-0.481445:-0.854492:0.257324:-0.5625:0.375:0.375
1562063737835880:1:-1:2:-1:-2:1:0:-2:-0.486328:-0.862793:0.251953:-0.0625:1.3125:-0.375
1562063737886885:-1:0:3:-3:3:4:1:-4:-0.490234:-0.85791:0.253418:-4.0625:-1.125:0.375
1562063737946891:-2:0:3:-11:-2:-1:1:2:-0.492188:-0.868164:0.238281:-0.6875:-0.3125:0.3125
1562063737997896:1:0:0:2:2:0:3:8:-0.481934:-0.85498:0.257812:-0.75:-0.5:0.5
1562063738043901:-1:-2:-1:6:1:-3:-2:-2:-0.487305:-0.861328:0.248047:-3.3125:-2.5625:0.8125
1562063738099907:0:0:0:-5:1:0:-1:-2:-0.491699:-0.852051:0.255859:2.125:-1.25:0.125
1562063738148912:-1:-2:-3:-4:-4:-2:-1:-4:-0.486816:-0.856934:0.255371:-2.25:-0.8125:-0.375
1562063738196916:0:0:2:10:1:1:-1:-1:-0.491699:-0.855469:0.248047:-0.5625:-0.9375:-0.9375
1562063738246921:-1:-2:-1:-8:-2:0:1:-1:-0.479004:-0.868652:0.246094:-0.875:-0.875:-0.75
1562063738297926:-1:-2:1:-3:4:-3:-8:-3:-0.48291:-0.866211:0.245605:-1.875:-1.4375:-0.0625
1562063738339931:0:-1:2:6:0:-3:-5:-19:-0.482422:-0.864746:0.254883:-1.1875:-0.5625:0.4375
1562063738399937:-2:-1:1:9:-8:0:0:0:-0.481934:-0.859863:0.253906:-1.0625:0.8125:0.375
1562063738448942:-1:-1:3:-2:-1:6:10:8:-0.488281:-0.862305:0.243164:-1.5625:-0.0625:0.4375
1562063738496946:0:-2:0:-14:3:-2:-4:-2:-0.489746:-0.856445:0.245117:0.4375:0.125:0.6875
1562063738546951:-1:0:0:18:0:0:-3:-4:-0.48584:-0.856934:0.242188:-2.125:-1.8125:1
1562063738596956:1:1:1:-6:1:2:-1:0:-0.489258:-0.865723:0.248047:-0.875:-0.25:0.0625
1562063738657962:-1:-1:0:7:0:1:2:1:-0.491211:-0.85498:0.247559:-0.125:-0.3125:0
1562063738699967:-2:0:0:-6:-1:-4:-4:-2:-0.482422:-0.868164:0.25:-0.1875:0.875:-0.6875
1562063738748972:1:1:1:-1:-2:1:-2:0:-0.48584:-0.85791:0.240234:-1.8125:-1.25:-0.25
1562063738796976:-1:-1:-1:-8:-8:3:3:3:-0.487305:-0.850098:0.257324:0.3125:1.875:-1.0625
1562063738845981:0:-2:-3:4:-1:2:5:-2:-0.489258:-0.861816:0.248535:-0.4375:-0.875:1.4375
1562063738905987:-2:-1:-2:-18:3:-1:-2:0:-0.490234:-0.862793:0.254395:0.3125:-0.125:2.125
1562063738951992:-2:1:-1:0:-6:-4:-2:-4:-0.478027:-0.860352:0.242188:1.3125:0.75:2.0625
1562063738999997:0:-2:-1:-12:3:2:0:-2:-0.493164:-0.854004:0.25293:-0.3125:2.125:1.0625
1562063739049002:0:1:0:-13:3:2:4:1:-0.504395:-0.854004:0.237793:-2.125:0.875:0.9375
1562063739100007:0:2:0:1:6:0:1:8:-0.492188:-0.852539:0.249023:1.0625:2.4375:0.9375
1562063739156012:-1:-3:-5:8:-1:-1:-3:-3:-0.487793:-0.864258:0.259277:-0.3125:2.375:1.625
1562063739206017:0:-2:1:4:0:-3:-1:-2:-0.509766:-0.844727:0.256348:-0.5625:4.5625:3
1562063739252022:0:0:0:-5:3:1:-4:2:-0.512695:-0.844238:0.239258:1.125:3.75:2.9375
1562063739300027:0:-2:-4:-13:-3:-2:3:-4:-0.521973:-0.84375:0.22168:-1.0625:1.8125:-0.8125
1562063739349032:-1:-2:0:5:5:-4:-7:-20:-0.491699:-0.855469:0.231445:0.75:-2.9375:-5.1875
1562063739409038:-1:0:-3:4:2:-1:1:1:-0.5:-0.861328:0.259766:2:-3.3125:-5.3125
1562063739455042:0:1:2:-1:-3:-1:-1:2:-0.482422:-0.870117:0.244629:-1.9375:-1.4375:-1.0625
1562063739499047:1:-1:-4:-3:-7:-2:3:6:-0.475098:-0.87207:0.249512:1.75:0:0.875
1562063739559053:0:-1:-2:-17:0:3:3:-1:-0.495117:-0.849121:0.248535:-0.4375:0.625:1.9375
1562063739599057:-1:-2:1:-3:0:-1:-5:-4:-0.499023:-0.860352:0.243164:-0.875:1.5:0.625
1562063739660063:0:-2:-6:-13:-5:0:0:-3:-0.496582:-0.855469:0.249023:0.3125:1.1875:-1.4375
1562063739709068:-1:0:-2:-11:-7:-4:-1:1:-0.497559:-0.86084:0.245117:-0.25:2.375:-2.125
1562063739761073:-1:-1:2:0:-5:-4:-1:5:-0.494141:-0.864258:0.242676:-0.875:0.625:-1.9375
1562063739802077:1:-1:0:-18:-3:0:0:1:-0.498535:-0.86084:0.240723:0.1875:0.25:-0.75
1562063739852082:-2:-1:-6:-3:2:-2:-3:1:-0.491699:-0.858887:0.240234:0:-0.125:-0.4375
1562063739911088:0:-1:0:-1:0:1:-3:0:-0.495605:-0.848633:0.249023:-1.125:-0.375:-1
1562063739960093:0:2:1:10:2:-1:-2:-1:-0.493164:-0.855957:0.251953:1.625:-0.8125:-1.0625
1562063740001097:-1:-1:-1:-4:-2:-2:-3:1:-0.491211:-0.867188:0.245605:-0.625:-0.8125:0.3125
1562063740062103:-2:0:-3:11:-6:-7:-1:1:-0.492188:-0.855957:0.251465:0.3125:0.9375:0.5625
1562063740102107:1:-1:-1:-9:2:-1:1:0:-0.491211:-0.855957:0.240234:-0.125:1.1875:0.5
1562063740162113:0:-4:-2:4:3:0:-1:4:-0.494629:-0.854492:0.247559:1.5625:1.125:-0.25
1562063740211118:1:2:-3:-8:-2:2:0:1:-0.486816:-0.855469:0.240723:-0.4375:0.875:0.75
1562063740263123:0:0:-1:16:-5:-4:-4:0:-0.493652:-0.855957:0.243652:-0.4375:0.625:0.5
1562063740302127:0:0:1:-17:2:1:3:-1:-0.491699:-0.853027:0.244629:0:0.375:-0.25
1562063740361133:-2:-3:0:7:-3:-1:0:-3:-0.495117:-0.849121:0.240723:-0.8125:0.4375:-1.125
1562063740414138:-1:0:2:-22:3:1:0:-2:-0.497559:-0.863281:0.239258:-0.8125:-0.1875:-0.8125
1562063740462143:0:0:4:-38:-12:4:2:3:-0.501953:-0.862305:0.221191:-1.9375:-1.9375:0.4375
1562063740511148:-3:0:-9:-62:44:2:4:1:-0.506348:-0.864258:0.187012:7.375:-7.1875:2.625
1562063740563153:-12:2:-13:11:-5:19:23:9:-0.552246:-0.799316:0.223633:20.625:-35.75:-1.25
1562063740618158:-19:-32:-67:-61:-17:-22:-23:-13:-0.411133:-0.855957:0.387695:10.1875:-42.9375:-14.25
1562063740662163:52:87:127:97:49:88:54:44:-0.460449:-0.815918:0.332031:-52.6875:4.3125:0.0625
1562063740721169:-20:-26:-15:69:-19:-67:-36:-21:-0.46875:-0.945801:0.246582:-27.75:9.4375:-1.5
1562063740762173:-9:-22:-39:11:45:-30:-23:-11:-0.458496:-0.835449:0.207031:-10.5:3.0625:0.5
1562063740821179:-6:-16:-103:-29:-107:-16:-14:-7:-0.5:-0.866699:0.200684:-10.875:-3.9375:0.8125
1562063740871184:-27:-30:-36:-33:93:-40:-32:-19:-0.46875:-0.867676:0.238281:2.0625:-4.5:-1.75
1562063740924189:11:0:-10:-46:-40:-3:3:7:-0.435547:-0.916016:0.220703:-5.5625:-3.0625:-4.75
1562063740962193:-1:0:-45:-37:34:6:0:-4:-0.45166:-0.887695:0.217285:3.75:-2.1875:-2.8125
1562063741021199:-4:3:-14:-48:-91:24:10:3:-0.458008:-0.899902:0.22168:0.6875:2.5:2.5
1562063741064203:6:16:54:-71:35:22:18:8:-0.449707:-0.890137:0.1875:0.0625:3.25:2.5
1562063741124209:-4:-3:19:59:36:-19:-7:-6:-0.478516:-0.843262:0.210449:6.75:2.5625:4.9375
1562063741164213:-8:-11:6:-3:-6:-17:-14:-14:-0.468262:-0.893066:0.211914:0.875:0.3125:3.125
1562063741217218:-5:-5:-14:-20:-23:-8:-4:-2:-0.454102:-0.852539:0.232422:20.3125:1.75:2.9375
1562063741264223:4:5:6:8:13:9:0:5:-0.494629:-0.875488:0.238281:20.75:2.4375:-1.9375
1562063741324229:-26:0:-4:36:6:-8:-41:-11:-0.431152:-0.838379:0.320312:29.25:8.6875:-5.8125
1562063741376234:-29:-10:-9:8:1:-2:-27:-27:-0.450684:-0.891113:0.329102:19.5625:26.0625:-4.5
1562063741427239:-6:-3:-3:-7:-9:-3:11:-13:-0.516113:-0.850098:0.223145:0.5625:44.4375:8.5625
1562063741464243:7:-1:7:26:10:7:9:-11:-0.546875:-0.871094:0.12793:-30.3125:14.6875:14.3125
1562063741523249:-2:0:-5:-12:25:-8:-2:1:-0.519531:-0.819824:0.21875:-8.125:-10.125:2.9375
1562063741577254:-4:-1:1:10:-4:2:-4:-7:-0.510254:-0.893066:0.257324:-11.375:-13.9375:-10.6875
1562063741625259:-2:-1:1:2:-15:-1:0:-4:-0.475586:-0.848633:0.258301:-0.9375:-1.25:-6.3125
1562063741674264:0:-1:-3:-6:-6:-1:16:9:-0.458984:-0.899902:0.222168:-11.5625:-0.3125:-3.6875
1562063741726269:-1:0:-1:0:-2:-1:-3:-6:-0.479492:-0.873047:0.230469:-3.5625:4.125:0.875
1562063741779275:-2:0:-2:1:8:2:-1:0:-0.499023:-0.885742:0.213867:-0.0625:5.25:0.8125
1562063741824279:0:0:1:-14:-1:2:-1:-7:-0.503906:-0.850586:0.212402:-2.5625:2.125:0.875
1562063741877284:2:1:-2:-4:-2:2:0:1:-0.484863:-0.861816:0.210938:3.1875:3.4375:-2.9375
1562063741928289:-2:-3:-3:18:-15:-7:-6:-4:-0.486816:-0.871582:0.199707:-2.4375:1.6875:-3.5
1562063741966293:-2:-2:1:4:3:3:-6:-1:-0.489746:-0.871582:0.193848:0:-0.4375:-1.3125
1562063742026299:0:-1:-3:-11:5:3:5:5:-0.481445:-0.875488:0.217285:-1.6875:-0.75:0.9375
1562063742080305:-1:-1:1:-3:4:2:-1:-3:-0.494141:-0.862793:0.20752:1.0625:1.9375:1.9375
1562063742124309:0:-1:-1:-5:-1:-2:1:3:-0.492676:-0.881836:0.20459:1.3125:2.375:1.5
1562063742184315:1:0:8:0:-5:2:0:2:-0.496582:-0.85791:0.20752:0.5625:0.6875:2
1562063742235320:-3:-1:-6:0:-3:-4:-3:-1:-0.501953:-0.866211:0.205078:1.125:1.3125:0.8125
1562063742282325:-2:-1:-2:-5:-3:0:-1:1:-0.500488:-0.863281:0.209473:0:0.6875:0.6875
1562063742326329:-4:-4:-2:2:-1:1:3:-13:-0.496094:-0.870605:0.205566:0.625:0.625:0.625
1562063742386335:0:1:2:2:-1:-1:2:-1:-0.498535:-0.870605:0.205566:0.8125:0.4375:1.5
1562063742427339:-1:0:-4:-11:-1:2:2:7:-0.498047:-0.861816:0.208496:0.3125:-0.375:1.375
1562063742487345:-1:1:-1:1:3:2:5:1:-0.506836:-0.86084:0.211914:0.5:-1.75:1.25
1562063742537350:-2:-2:-3:1:4:0:5:-3:-0.50293:-0.865234:0.210449:0.375:-0.875:0.75
1562063742588355:0:-1:-2:-1:-5:-3:1:0:-0.497559:-0.86377:0.202637:-0.1875:0.375:-0.5625
1562063742626359:-2:-2:-2:6:-2:2:4:-1:-0.503418:-0.860352:0.214355:0.6875:-0.1875:-0.625
1562063742687365:-2:-5:-2:-1:1:-1:1:0:-0.500488:-0.863281:0.204102:0.8125:-0.375:-1
1562063742726369:-1:1:2:-3:2:-10:-5:2:-0.495605:-0.870117:0.207031:-0.75:-0.4375:-0.5625
1562063742786375:0:0:-1:5:5:4:-3:-2:-0.496582:-0.863281:0.217285:0.3125:0:-0.5
1562063742828379:-1:-2:-1:-5:-6:-1:-3:-7:-0.499512:-0.86377:0.21582:0.75:-0.75:-0.1875
1562063742881385:0:-1:-1:-1:0:-1:-2:-1:-0.501953:-0.86084:0.212891:-0.3125:0.125:-0.1875
1562063742927389:-1:0:2:-2:-1:-1:0:-4:-0.505371:-0.862305:0.21582:-0.25:0.6875:0.0625
1562063742986395:-1:0:-1:-2:1:4:0:-4:-0.500488:-0.862793:0.212891:-1.1875:-1.25:0.3125
1562063743039401:-1:1:0:-5:0:-4:1:2:-0.496582:-0.853027:0.211426:0.4375:0.3125:-0.375
1562063743085405:-5:3:0:0:0:-2:-1:2:-0.500488:-0.866699:0.208496:-0.5:-0.125:-0.9375
1562063743128409:-1:-1:-5:7:-1:-2:-6:1:-0.505859:-0.870117:0.211426:-0.0625:-0.1875:-0.5
1562063743188415:2:1:1:4:1:-1:0:4:-0.497559:-0.859863:0.219238:-0.9375:-1.25:1.0625
1562063743242421:1:2:0:4:2:-3:-1:0:-0.495117:-0.861816:0.220703:-0.6875:1.125:1.375
1562063743285425:-2:0:-1:6:-1:1:1:-15:-0.495117:-0.863281:0.20752:0.3125:2.5625:1.75
1562063743338430:-1:-3:-4:-7:-2:-4:-1:-2:-0.504395:-0.864746:0.213867:-1.0625:1.9375:2.4375
1562063743389436:-1:0:-4:-1:2:2:4:7:-0.516602:-0.859375:0.203125:-0.3125:1.4375:2.5
1562063743445441:1:-2:0:1:9:0:-1:4:-0.512695:-0.85498:0.212891:-0.5:0.5625:1.5625
1562063743489446:-2:-2:-5:3:-2:-5:0:2:-0.512695:-0.85791:0.209961:-2.4375:0.625:0.0625
1562063743541451:1:-1:-3:-4:4:3:2:4:-0.507324:-0.854004:0.203125:-0.5625:0.6875:0.3125
1562063743589456:1:0:0:1:0:-1:1:1:-0.507812:-0.864746:0.202148:-0.375:1.4375:0.375
1562063743638460:1:-1:-1:2:-10:-4:-2:1:-0.512695:-0.85791:0.202637:-0.75:1.5:-0.125
1562063743691466:-1:-2:-2:-4:5:2:3:-1:-0.514648:-0.858887:0.208008:0.625:-0.25:-0.375
1562063743744471:0:0:0:-14:-7:-1:3:-1:-0.508789:-0.86084:0.204102:0:-0.875:-1.0625
1562063743788475:-1:-2:-1:-4:0:0:-2:-1:-0.51123:-0.857422:0.206543:0.375:-0.875:-0.375
1562063743842481:-1:-1:-1:4:5:-2:6:10:-0.509277:-0.856934:0.213379:0.5625:-0.8125:-0.5
1562063743893486:0:-1:-1:-2:-2:-1:-2:-1:-0.512695:-0.859375:0.209961:0.6875:-0.5:-0.5
1562063743948491:-1:0:1:1:0:-1:-2:1:-0.504395:-0.859863:0.214355:-1.5625:0.1875:0.125
1562063743991496:0:-1:-3:-3:3:0:-1:-2:-0.504883:-0.859375:0.20459:-2.0625:0.875:1.25
1562063744045501:0:1:4:1:1:0:1:2:-0.510742:-0.850586:0.203125:-0.25:1.25:0
1562063744088505:-1:0:0:3:-1:-4:-8:-12:-0.52002:-0.851562:0.201172:-1.125:0.5:-1.0625
1562063744141511:1:-3:-5:-9:-3:-1:-2:1:-0.519531:-0.853516:0.203125:-0.25:-0.0625:-1.5625
1562063744192516:0:0:2:3:-6:-1:1:1:-0.509766:-0.859863:0.204102:-0.25:-2.625:-0.875
1562063744249522:-1:-3:-2:0:-1:-1:1:8:-0.503418:-0.867676:0.204102:-2.3125:-3.3125:0.4375
1562063744291526:1:1:1:5:-3:-1:0:-2:-0.501953:-0.867188:0.218262:-1.375:0.0625:1.9375
1562063744351532:-2:-1:-2:4:-1:-2:-5:-4:-0.52002:-0.851562:0.208008:-2.75:1.25:0.4375
1562063744392536:0:0:0:-8:0:0:2:9:-0.52832:-0.849121:0.194336:0.5625:2.375:-1.6875
1562063744452542:0:0:1:5:-3:-3:2:0:-0.526855:-0.849121:0.194336:4.0625:0.4375:-6.875
1562063744489546:-1:-2:1:3:-1:-2:-3:-7:-0.48291:-0.88623:0.195312:0.3125:-2.125:-9.6875
1562063744546551:0:2:2:2:1:1:-6:-3:-0.484863:-0.875:0.220703:3.75:-3.0625:-6.9375
1562063744591556:-1:0:2:-4:2:-1:0:-1:-0.498047:-0.872559:0.224121:-0.4375:-2.5625:-0.875
1562063744651562:-2:0:-1:3:0:-2:-3:-20:-0.47998:-0.873535:0.212891:-1.125:-1:1.625
1562063744693566:-1:-1:0:4:-4:-2:-4:3:-0.481934:-0.867188:0.214355:-2.3125:0.5:0
1562063744752572:0:0:0:-4:0:2:3:-2:-0.494629:-0.866211:0.198242:-2.5:-0.4375:-0.875
1562063744793576:0:0:-1:-4:4:3:-1:1:-0.485352:-0.875488:0.197266:-0.4375:-0.375:-1.5
1562063744853582:-1:1:-2:-5:-2:-1:1:-2:-0.477539:-0.877441:0.205566:0.8125:-0.4375:-0.875
1562063744891586:1:0:-1:-1:-6:-1:-1:-3:-0.488281:-0.871582:0.210938:2:0.25:1.375
1562063744950592:-1:-1:-3:-8:2:-2:-4:-2:-0.493164:-0.871582:0.223633:0.75:1.3125:2.4375
1562063745007597:-1:-2:4:1:-1:-2:-2:-2:-0.49707:-0.861816:0.226074:0.25:1.375:1.5625
1562063745052602:-2:1:-3:-1:-2:-1:1:-5:-0.504395:-0.867188:0.217773:-0.9375:1.875:0.6875
1562063745093606:0:1:1:1:1:1:-2:-4:-0.494629:-0.866211:0.199707:-1.0625:1.375:1.125
1562063745153612:0:1:1:4:0:-1:-2:4:-0.492188:-0.869629:0.19873:-1.0625:1.875:1
1562063745206617:-2:0:-1:0:2:-1:-4:-3:-0.495605:-0.861328:0.198242:-0.5:0.6875:-0.25
1562063745251622:-1:-2:0:1:-2:-1:2:0:-0.494629:-0.864746:0.201172:0.875:-0.25:-0.4375
1562063745291626:0:0:-2:0:1:-1:-1:0:-0.490723:-0.871094:0.19873:0.8125:-0.75:-0.375
1562063745352632:-2:-2:-5:-9:-3:0:0:-2:-0.493652:-0.869141:0.20752:1.4375:-1:-0.5625
1562063745411638:1:-2:-2:7:-2:-3:0:0:-0.504883:-0.855469:0.208496:2.4375:-2.75:-0.875
1562063745453642:-1:-3:-3:-2:-1:-1:0:-1:-0.495605:-0.872559:0.215332:-0.25:-2.3125:-1.75
1562063745513648:0:-1:-2:-2:-6:1:-1:-3:-0.489746:-0.86377:0.216797:-0.0625:-2:-1.5625
1562063745550652:1:0:4:10:7:2:-4:-2:-0.489258:-0.867676:0.212891:0.3125:-1:-0.25
1562063745611658:0:-2:-5:-6:2:-3:1:-2:-0.489746:-0.868652:0.223633:-0.1875:0.5:0.0625
1562063745656662:0:-1:-1:-1:-2:1:0:-2:-0.483887:-0.871094:0.212891:-0.375:1.0625:0.8125
1562063745716668:0:2:0:-8:-5:0:-1:-1:-0.491699:-0.869141:0.20752:-0.25:1.625:1.3125
1562063745753672:-1:0:-2:5:0:0:-1:2:-0.493652:-0.860352:0.210938:0.25:2.1875:1.5625
1562063745814678:3:0:1:-2:0:-3:-1:5:-0.496094:-0.868652:0.212402:-0.1875:1.8125:0.8125
1562063745854682:-2:-2:-1:-2:-7:-2:0:0:-0.499023:-0.862793:0.216309:0.125:0.9375:-0.3125
1562063745914688:0:-1:-2:5:-4:-3:-5:-1:-0.498047:-0.859375:0.211914:0.25:-0.4375:-0.125
1562063745956692:-1:-1:0:2:1:2:-2:-3:-0.501465:-0.869629:0.203125:0.5625:-1.9375:0.3125
1562063746008697:-2:-2:-2:7:-2:0:-3:-16:-0.492676:-0.861328:0.213867:-0.3125:-1.3125:0.3125
1562063746053702:0:-1:0:1:-5:0:-1:1:-0.498535:-0.861816:0.220703:-0.8125:-1.625:0.375
1562063746114708:-1:-1:-2:-3:-2:-2:-5:-14:-0.500488:-0.859863:0.219238:-0.125:-0.625:0.1875
1562063746165713:-1:0:2:7:1:-1:1:3:-0.494141:-0.870605:0.210938:-0.75:0.75:0.4375
1562063746215718:-2:-1:-2:0:-3:-6:-1:1:-0.495605:-0.860352:0.209473:0.375:0.5:0.5
1562063746256722:-1:-1:0:1:-3:0:-4:-3:-0.504395:-0.868652:0.208984:-0.625:-1:0.625
1562063746316728:-2:-2:-1:2:0:-1:-7:-8:-0.50293:-0.855469:0.215332:0.375:-1.125:0.5
1562063746368733:0:-2:-5:-6:0:2:-1:-3:-0.496094:-0.867676:0.21875:-0.25:-1.125:0.4375
1562063746413738:-1:-2:0:-2:-3:-1:1:2:-0.494141:-0.860352:0.221191:-0.125:-0.3125:0.25
1562063746469744:-2:0:-1:-3:2:1:-2:0:-0.498535:-0.862305:0.220215:-0.4375:0.8125:-0.1875
1562063746518748:0:-2:-6:-4:-2:-1:-2:0:-0.500488:-0.859863:0.217773:0.3125:0.375:0.25
1562063746570754:1:0:2:8:2:-2:-4:0:-0.499023:-0.866211:0.219727:-0.3125:0.3125:0.375
1562063746616758:0:1:1:2:3:1:4:7:-0.501953:-0.856445:0.21582:-0.3125:0.625:0.1875
1562063746668763:1:0:-4:-7:-1:2:1:0:-0.501953:-0.866211:0.214844:0.125:0.1875:-0.375
1562063746717768:0:0:1:-7:1:-2:0:0:-0.500977:-0.859863:0.21582:-0.375:0.375:-1.0625
1562063746758772:-2:-2:0:1:1:4:1:0:-0.501953:-0.867676:0.217285:-0.5:0.125:-1.1875
1562063746819779:-1:-3:-7:1:-4:-3:1:0:-0.499023:-0.867676:0.212891:-1:-0.125:-0.8125
1562063746871784:0:2:2:6:5:2:-2:-1:-0.497559:-0.865234:0.212402:-1.125:-0.25:-0.875
1562063746915788:-3:0:-3:-1:-2:0:-1:-2:-0.498535:-0.86377:0.210449:-0.1875:0.125:-1.3125
1562063746969794:-1:0:4:2:-4:-2:1:10:-0.496582:-0.865723:0.215332:-2.3125:-0.375:-1.625
1562063747016798:0:-1:-2:3:3:-2:-3:0:-0.49707:-0.864258:0.209961:0.125:-0.5:-1.1875
1562063747058802:0:1:1:-3:-2:-3:-5:-12:-0.488281:-0.866699:0.212402:-1.5:0:-1.0625
1562063747119809:-1:0:-3:-5:-3:-1:-2:1:-0.489746:-0.869629:0.212402:0.5625:-0.1875:-0.25
1562063747171814:-1:-1:-2:1:0:0:-1:-2:-0.490234:-0.872559:0.217285:-0.8125:0.0625:-0.375
1562063747216818:-1:-1:0:0:0:-1:-5:0:-0.496094:-0.86377:0.211426:-1.125:0.875:0
1562063747276824:-1:1:0:2:3:-1:3:3:-0.492676:-0.867188:0.213867:-0.1875:0.9375:0.125
1562063747317828:0:0:1:-2:1:0:0:-2:-0.49707:-0.863281:0.209473:-0.4375:1.125:0.1875
1562063747374834:0:-1:2:2:4:1:0:0:-0.492676:-0.868652:0.205566:-0.125:0.875:0
1562063747418838:-1:-2:0:2:0:1:-3:-15:-0.496582:-0.864746:0.206543:-1.0625:0.9375:0.1875
1562063747479845:-1:-2:-1:2:-2:-2:-1:-1:-0.494629:-0.867676:0.210449:-0.5625:0.8125:0.375
1562063747516848:-3:0:-3:-3:-1:-3:-4:-12:-0.499023:-0.866211:0.211426:-0.375:0.5625:0.5625
1562063747579855:-1:-1:-2:-5:-2:-3:-3:-1:-0.497559:-0.867676:0.208008:0.0625:0.4375:0.1875
1562063747621859:2:-1:-4:-7:0:0:4:14:-0.497559:-0.863281:0.211914:-0.4375:0.75:0.375
1562063747673864:0:-1:-4:3:-4:1:2:-1:-0.499023:-0.864258:0.215332:0.625:0.875:0.0625
1562063747718868:2:0:2:-5:-2:1:2:2:-0.498535:-0.86377:0.202637:0.0625:0.25:0.3125
1562063747779875:1:0:1:5:3:2:0:-3:-0.496094:-0.873535:0.20166:0.5625:0.375:-0.1875
1562063747831880:-2:0:-2:-6:1:0:-1:-2:-0.500977:-0.868164:0.209473:-0.8125:-0.5625:0.1875
1562063747879885:0:2:1:2:2:2:-3:-4:-0.504395:-0.860352:0.210449:0.375:-0.1875:0.5
1562063747938890:-2:0:-1:-6:0:-3:0:6:-0.495605:-0.86377:0.211426:-0.625:0.25:0.375
1562063747981895:-1:-1:-3:4:-1:-5:-4:-5:-0.503906:-0.86084:0.217773:0.6875:0.6875:0.5
1562063748033900:0:-3:0:-1:2:-1:-2:-1:-0.505371:-0.867188:0.20752:-0.5625:0.5625:0.9375
1562063748078904:0:1:0:-5:-1:-3:-4:-1:-0.503906:-0.862305:0.208984:-0.0625:0.25:0.6875
1562063748131910:-1:0:0:5:0:-2:-3:-4:-0.503906:-0.857422:0.209961:0.375:0.3125:0.25
1562063748179915:-1:-1:3:8:1:-1:-1:-2:-0.506836:-0.861328:0.21582:0.3125:-0.125:0.1875
1562063748239921:1:-1:0:0:1:-1:0:0:-0.505371:-0.860352:0.210449:-0.3125:0.0625:-0.375
1562063748282925:-1:-1:-2:-13:-10:0:1:-1:-0.509277:-0.861328:0.212402:-0.0625:-0.375:-0.625
1562063748333930:0:1:-1:1:2:0:0:-1:-0.507812:-0.85791:0.212891:0.25:-0.25:-0.5625
1562063748379935:0:-1:-2:2:2:-2:-5:-2:-0.499512:-0.86377:0.208984:0.125:-0.3125:-0.1875
1562063748438940:-3:-2:-5:12:0:-3:-3:-2:-0.499023:-0.862305:0.212402:-0.625:-0.0625:-0.125
1562063748490946:0:0:-2:-14:-6:-1:-1:0:-0.507812:-0.855957:0.210938:-1.9375:-0.625:-0.1875
1562063748544951:-4:1:-3:-23:-4:3:1:2:-0.508789:-0.883301:0.187988:-4.125:-2.3125:0.625
1562063748581955:-12:-15:-19:108:25:-17:-10:-8:-0.520996:-0.837402:0.163086:20.4375:-16.375:6.375
1562063748640961:-4:3:25:58:32:8:3:1:-0.556641:-0.806152:0.148438:14.125:-36.1875:-1.25
1562063748682965:-11:-23:-30:-103:3:-44:-28:-15:-0.515625:-0.791016:0.277344:15.8125:-66.25:-10.125
1562063748741971:28:37:-29:13:-47:61:42:30:-0.297852:-0.945312:0.538086:-6.8125:-36.25:-19.9375
1562063748783975:-6:-14:-45:-63:83:44:4:1:-0.52002:-0.819336:0.243164:-71.8125:-4:-4.25
1562063748844981:-17:-20:12:45:-26:-46:-20:-17:-0.436523:-0.964844:0.224121:-53.9375:-3.375:-9.25
1562063748880985:-10:5:-43:-99:-26:-3:13:5:-0.417969:-0.854004:0.203125:-16.375:-4:-6.875
1562063748941991:-20:-45:0:94:17:-35:-33:-18:-0.397949:-0.94873:0.233887:3.125:-1.375:-8.875
1562063748993996:10:40:18:-22:25:20:10:13:-0.391602:-0.875977:0.211426:-2.9375:-2.9375:-4.5
1562063749042001:-6:-26:-105:-82:-114:1:6:0:-0.406738:-0.93457:0.219727:7.125:1.6875:-6.75
1562063749084005:-1:-10:-36:52:99:4:-11:-1:-0.42041:-0.897949:0.227051:-2.25:-0.375:-0.0625
1562063749145011:12:44:113:-75:-6:14:12:8:-0.415039:-0.897461:0.226562:3:-0.375:0.9375
1562063749197016:-14:-7:23:-48:-48:-7:1:-2:-0.405273:-0.914062:0.216797:13.5:4.0625:1.6875
1562063749242021:-37:-17:-18:-25:-13:1:3:4:-0.395508:-0.905273:0.234375:34.5625:8.3125:5.25
1562063749295026:29:-1:-2:41:0:4:-2:31:-0.428223:-0.889648:0.323242:45.625:15.375:-2.625
1562063749348031:14:12:-7:-6:-1:-3:-43:-24:-0.387207:-0.952637:0.349609:19.75:38.75:-1.25
1562063749399036:28:16:-1:2:3:1:-71:-72:-0.504395:-0.790527:0.260742:0.6875:51.6875:13.8125
1562063749444041:3:2:4:34:11:2:17:-21:-0.443359:-0.952148:0.158691:-29.75:37.75:24.3125
1562063749497046:1:3:-1:-48:-16:7:23:28:-0.472656:-0.838379:0.186035:6.5625:18.5:19.8125
1562063749544051:-2:-3:-7:-17:-10:-5:-10:1:-0.508789:-0.864746:0.183594:-16.8125:-12.4375:-3.1875
1562063749605057:1:-1:3:7:-4:-4:-11:-4:-0.589355:-0.855957:0.186523:4.0625:-8.25:-5.1875
1562063749647061:0:-1:1:33:7:0:1:-4:-0.489258:-0.863281:0.240234:-1.6875:-0.875:-0.9375
1562063749699066:-2:-3:-2:29:-3:-3:1:4:-0.455078:-0.879395:0.220215:-4.125:-2.75:-1.25
1562063749744071:2:1:3:-4:6:4:-1:8:-0.487305:-0.87793:0.22168:-0.5625:3.25:-1.1875
1562063749805077:-1:-2:-1:-1:1:-2:-2:-9:-0.501953:-0.858398:0.208984:-1.4375:2:-1.6875
1562063749856082:-1:-1:0:55:3:0:1:0:-0.510254:-0.85791:0.199219:-3.5:-1.0625:-0.0625
1562063749905087:1:-1:0:-10:-1:2:2:5:-0.495605:-0.876465:0.206055:-4.75:-3:1.1875
1562063749948091:-1:-2:3:3:-4:-1:-1:-1:-0.481445:-0.858887:0.219727:0.75:-4.0625:-0.0625
1562063749999096:-1:-1:2:-3:3:4:-7:-5:-0.483887:-0.874023:0.216309:0.0625:-1.625:-1.1875
1562063750044101:-1:1:3:1:-1:-2:6:8:-0.498047:-0.865234:0.208496:-0.25:0.75:-0.8125
1562063750105107:0:0:1:0:-3:0:-4:-2:-0.500977:-0.865723:0.20752:-0.0625:-0.375:0.0625
1562063750157112:-1:-4:-7:-3:2:-3:-2:0:-0.493652:-0.86377:0.208496:0.0625:-1:-1.125
1562063750204117:0:-1:4:1:3:0:-1:1:-0.489746:-0.866699:0.209961:-2.125:-0.875:-2.625
1562063750262123:1:1:1:-5:0:2:1:-1:-0.492188:-0.871582:0.211426:-0.9375:-1.5:-1.6875
1562063750307127:1:1:1:-3:-3:1:3:1:-0.482422:-0.872559:0.212402:-0.25:-0.3125:-0.8125
1562063750358132:0:-1:-2:0:-1:0:-1:-2:-0.488281:-0.867188:0.212891:-0.0625:0.1875:-0.125
1562063750405137:0:0:1:2:-2:0:0:-1:-0.480469:-0.879883:0.202637:-1.1875:1.8125:-0.3125
1562063750449141:-1:0:-1:-4:2:-4:-1:-1:-0.491211:-0.870117:0.210449:-1.0625:-0.5625:0.5
1562063750510148:0:0:4:10:0:-1:2:1:-0.491699:-0.866699:0.211426:-0.5625:0.25:0.4375
1562063750561153:-2:-2:-3:-2:-2:0:0:-6:-0.484863:-0.876465:0.205078:-0.1875:-0.25:0.4375
1562063750607157:1:1:-4:-10:-1:-1:-1:3:-0.490234:-0.868652:0.209473:-2.375:0.0625:-0.0625
1562063750659162:0:0:1:5:2:-1:-4:1:-0.487305:-0.866699:0.206543:-0.375:0.6875:-0.125
1562063750707167:-3:0:0:-10:-4:-5:-1:1:-0.48877:-0.864258:0.210938:-0.75:0.75:-0.1875
1562063750765173:-1:-3:-4:-4:-1:0:0:3:-0.490723:-0.870117:0.203613:1.4375:1.3125:0.1875
1562063750809177:-2:0:2:14:4:2:3:3:-0.48877:-0.867188:0.206055:-1.375:0.375:-0.1875
1562063750861183:-1:0:-1:-2:-2:1:3:-1:-0.486328:-0.868164:0.208496:0.625:0:0.1875
1562063750907187:1:-2:-2:-2:0:-1:0:9:-0.489258:-0.87207:0.207031:-1.8125:-0.3125:-0.4375
1562063750959192:0:0:0:1:-3:-3:-3:-2:-0.495117:-0.869629:0.202148:0.375:-0.3125:0
1562063751015198:2:1:0:-6:0:1:0:3:-0.489746:-0.873047:0.20752:0.3125:-0.125:0.125
1562063751063203:-2:-2:-2:7:-11:0:0:1:-0.492676:-0.863281:0.209473:0.5625:0.4375:0.1875
1562063751116208:1:-1:-2:-10:0:1:3:2:-0.493652:-0.870605:0.213867:-0.6875:-0.0625:1
1562063751161213:-1:-1:-1:-8:-2:0:2:-3:-0.493652:-0.86377:0.215332:0.5625:0.625:0.9375
1562063751210218:-2:0:0:-3:-4:-6:-6:-1:-0.492188:-0.863281:0.210938:0.5625:0.9375:0.75
1562063751270224:0:-2:-1:-2:3:-3:1:-1:-0.492188:-0.870605:0.206543:-0.8125:0.75:0.6875
1562063751318228:-1:-4:-7:-11:-2:1:-4:-2:-0.494141:-0.864746:0.205078:0.1875:0.375:0.4375
1562063751364233:-1:1:1:-6:-2:1:-1:0:-0.501953:-0.860352:0.202148:-2:-1.0625:0.25
1562063751411238:-1:-1:-2:3:4:-2:-1:-2:-0.495605:-0.863281:0.207031:1.25:-0.125:0.4375
1562063751472244:-2:0:4:-2:-2:-2:0:0:-0.487305:-0.868652:0.210449:0.0625:0.3125:-0.25
1562063751522249:0:1:-1:2:-5:-1:0:-1:-0.494629:-0.869141:0.206543:-0.1875:-0.125:0.0625
1562063751572254:-2:1:3:-1:-2:2:-1:-9:-0.499023:-0.869141:0.208984:-0.5:-0.125:0.25
1562063751614258:-1:-2:2:15:4:-3:-2:-1:-0.497559:-0.866699:0.202148:0.5625:0.25:0.25
1562063751674264:0:1:-1:-5:-1:0:1:1:-0.503418:-0.860352:0.206543:-0.3125:0.25:0.125
1562063751724269:-1:-1:-2:6:5:1:0:-3:-0.501465:-0.865723:0.206543:-0.3125:-0.125:0.125
1562063751772274:0:-1:2:5:-1:-1:1:2:-0.497559:-0.867676:0.211426:0.75:0.625:-0.625
1562063751822279:-1:-1:-2:9:7:-4:-3:-1:-0.499023:-0.868164:0.216797:0.1875:0:-0.375
1562063751872284:-1:-2:0:-1:1:0:0:0:-0.499023:-0.862793:0.212891:1:0:0.3125
1562063751926289:-3:0:0:-5:-2:1:-2:2:-0.491699:-0.862793:0.208008:1:0.625:-0.3125
1562063751975294:-1:-2:-3:-9:-4:-3:1:-1:-0.501465:-0.867676:0.214844:0.625:0.1875:-0.25
1562063752024299:-2:-3:3:14:-5:-2:0:-2:-0.49707:-0.863281:0.213867:-0.125:0.3125:-0.4375
1562063752071304:-1:2:2:1:-2:0:-3:-1:-0.496094:-0.85791:0.212402:-0.375:-0.625:0.3125
1562063752121309:-1:0:-2:0:-2:0:3:0:-0.500488:-0.866211:0.210938:0.125:0:-0.125
1562063752174314:-1:0:0:4:-1:-4:0:-2:-0.493652:-0.871094:0.210449:-0.75:0.25:-0.4375
1562063752226319:-1:-2:3:0:0:-1:0:-1:-0.498535:-0.864258:0.210938:0.0625:-0.5625:-0.375
1562063752275324:0:0:-1:5:5:2:-1:0:-0.499023:-0.86377:0.205566:-0.3125:-0.25:0.25
1562063752324329:-1:0:-2:-17:0:0:1:0:-0.495117:-0.862305:0.210938:0.125:0.375:0.4375
1562063752375334:-1:-1:-5:-6:-3:-1:-2:-1:-0.497559:-0.861328:0.215332:0:0.4375:0.125
1562063752430340:-3:0:0:0:2:0:-3:0:-0.501953:-0.86084:0.210938:-0.6875:0.5:-0.25
1562063752474344:1:-2:0:-1:5:3:-1:-1:-0.499512:-0.862793:0.213867:-1.375:-0.1875:0
1562063752528349:-1:-1:0:-4:-1:0:-1:1:-0.49707:-0.858398:0.211914:0.125:0:0.25
1562063752575354:0:-1:0:5:-2:-3:-2:-1:-0.49707:-0.863281:0.210938:-1.5:0.4375:0.125
1562063752624359:-2:-2:-5:5:2:3:2:-1:-0.499023:-0.862305:0.214355:0.125:0.375:-0.3125
1562063752675364:0:1:-1:-4:2:1:4:1:-0.501465:-0.86377:0.208984:-0.4375:0.1875:-0.125
1562063752735370:0:-1:-2:-4:0:-1:3:-1:-0.503418:-0.864258:0.212402:-0.5:-0.125:0.3125
1562063752777374:1:1:0:0:1:-1:0:0:-0.5:-0.861328:0.211426:0:-0.75:0.4375
1562063752826379:-1:-1:2:0:-2:1:0:-1:-0.498047:-0.86084:0.213867:0.25:-0.3125:0.5625
1562063752875384:-3:-2:-2:-3:-7:-2:-3:-2:-0.503418:-0.859863:0.21582:0.25:-0.0625:0.3125
1562063752935390:0:-1:2:0:1:0:-2:-1:-0.501953:-0.86377:0.213867:-0.4375:0.375:0.0625
1562063752984395:-2:-1:0:-2:-1:-1:1:1:-0.500977:-0.857422:0.209961:0.1875:0.1875:-0.0625
1562063753035400:1:1:1:5:2:3:1:0:-0.501953:-0.858887:0.211426:0.3125:0.125:-0.125
1562063753077404:-1:-2:-3:-7:3:3:3:1:-0.49707:-0.866211:0.211426:-0.9375:-0.5:-0.25
1562063753136410:0:-2:-5:-10:4:0:0:-1:-0.506836:-0.858887:0.217285:-1.3125:-0.4375:-0.375
1562063753186415:0:0:-4:-1:-4:2:-2:0:-0.502441:-0.859375:0.212402:0.25:-0.25:-0.125
1562063753235420:-3:-1:-1:9:-6:-2:-1:-1:-0.497559:-0.873047:0.212891:-1.5:-0.125:-0.4375
1562063753276424:-2:-3:-4:6:0:2:0:0:-0.50293:-0.859863:0.214355:0.9375:-0.1875:-0.5
1562063753336430:-1:0:-2:-3:0:2:1:-1:-0.5:-0.868652:0.207031:-1.1875:-0.6875:-0.75
1562063753389435:0:1:0:-9:-10:1:-1:-1:-0.500977:-0.855957:0.213867:0.375:-0.125:-0.625
1562063753436440:-2:-2:-4:0:28:-2:-1:-2:-0.501465:-0.872559:0.214355:-1.125:-0.375:-0.4375
1562063753486445:-5:-7:2:38:-9:-11:-5:-5:-0.510742:-0.854492:0.1875:-20.1875:-7:5.5625
1562063753537450:4:-2:-20:47:-68:1:4:8:-0.638184:-0.905762:0.0761719:14.625:-28.9375:8.1875
1562063753593456:6:6:25:-19:45:12:0:3:-0.630371:-0.776367:0.211914:80.8125:-65.9375:17.875
1562063753636460:13:15:22:93:57:100:34:18:-0.226074:-0.918945:0.631836:-30.6875:-26.0625:-39.4375
1562063753689465:-6:2:51:78:-51:-82:-6:-5:-0.615723:-0.876953:0.0541992:-104.875:0:2.5
1562063753737470:-15:-15:-28:13:86:-44:-18:-14:-0.547363:-0.937012:0.214844:5.625:7.6875:-6.5
1562063753786475:-4:-5:-24:43:55:9:-10:-8:-0.485352:-0.862305:0.17041:-6.3125:-11.5625:10.0625
1562063753837480:-12:-20:-27:-22:-39:-21:-18:-11:-0.443848:-0.857422:0.230469:7.3125:-12.25:-5.25
1562063753893486:-12:-4:-4:-87:-7:-11:-9:49:-0.358887:-0.878418:0.330566:38.1875:0.4375:-14.5
1562063753936490:-33:0:3:9:3:6:-49:67:-0.361816:-0.961914:0.378418:39.25:26.625:-14.75
1562063753997496:-29:-6:2:-33:-10:1:-10:-6:-0.602051:-0.725586:0.189941:1.125:38.375:10.75
1562063754037500:-17:-6:-7:-24:5:-1:-8:-16:-0.48291:-0.9375:0.115234:-45.3125:-10.25:7.875
1562063754097506:-5:0:2:-9:-4:-1:-7:-18:-0.450684:-0.86084:0.333008:3.75:-3.1875:-4.3125
1562063754147511:7:-2:0:13:6:-3:-23:-10:-0.407715:-0.915039:0.29834:1.1875:12.625:-2.25
1562063754192516:-6:-5:-5:44:-24:-6:-3:-13:-0.458984:-0.898438:0.195801:-27.1875:8.5:0.875
1562063754236520:0:-1:-7:-14:3:2:-12:-2:-0.503906:-0.925781:0.188477:-1.9375:3.3125:6
1562063754297526:-1:-1:-4:0:1:-2:-4:-8:-0.491699:-0.838867:0.236328:4.75:4.6875:3.625
1562063754350532:2:2:0:-4:0:2:0:3:-0.475098:-0.869141:0.226562:-4.75:1.5625:0.75
1562063754401537:-11:0:-1:-4:-4:-4:-4:-3:-0.479004:-0.881348:0.209473:1.875:3.5625:-1.5625
1562063754439540:-5:0:2:-2:-1:-1:-3:2:-0.481934:-0.878418:0.21582:-2.75:2.875:-1.1875
1562063754499546:-7:-1:0:11:2:0:-1:-6:-0.477051:-0.875488:0.206543:-0.0625:1.1875:0.5625
1562063754552552:-1:-2:3:-1:2:-1:0:-2:-0.475098:-0.874023:0.208984:-1:-0.375:2.0625
1562063754600557:-3:-1:-3:-4:-7:-5:-2:-4:-0.477051:-0.871582:0.21875:-0.8125:1.0625:1.4375
1562063754649561:-1:-2:-2:-1:-3:-3:-1:-4:-0.480957:-0.879883:0.202637:-0.3125:1:0.625
1562063754700567:-2:0:-1:-10:-4:-1:-3:1:-0.485352:-0.866211:0.20752:0.3125:0.6875:0.375
1562063754755572:1:1:-2:-18:2:-3:-5:-1:-0.481934:-0.885742:0.217285:-2.25:-0.5:0.5
1562063754799576:-3:-2:-1:-8:2:1:-2:-1:-0.482422:-0.869629:0.209961:-0.8125:-0.5:0
1562063754852582:-2:-2:-5:-2:5:0:2:5:-0.48584:-0.871094:0.211914:-0.75:-1:-0.6875
1562063754900587:0:-1:1:-2:-6:-4:-3:-2:-0.475098:-0.872559:0.209473:0.125:0.3125:-0.5625
1562063754948591:-1:-2:-3:4:0:-2:-2:-4:-0.478027:-0.87793:0.204102:0.125:0.0625:-0.75
1562063755001597:0:0:-3:4:-4:-2:-2:-1:-0.484863:-0.869629:0.209473:0.0625:-1.5625:-0.375
1562063755054602:-1:0:2:2:3:0:1:0:-0.479004:-0.875:0.216797:0.125:0:0.0625
1562063755098606:0:1:-1:9:2:1:-2:2:-0.475098:-0.880859:0.20752:1:0.875:-0.4375
1562063755152612:1:3:3:-6:-6:2:1:9:-0.481445:-0.875488:0.213379:-0.4375:-0.8125:0.0625
1562063755203617:0:-1:1:-2:-1:-3:-5:-4:-0.484375:-0.878906:0.213867:0.25:-0.75:0.4375
1562063755258622:-1:-1:-2:-6:-6:-3:-2:-4:-0.47998:-0.875977:0.216309:0.8125:-0.875:0.4375
1562063755307627:-2:0:-2:-4:-1:-4:-2:3:-0.484863:-0.877441:0.218262:0.125:0.4375:0.5
1562063755354632:1:0:4:2:0:0:1:5:-0.476562:-0.870117:0.209473:-0.0625:-0.9375:0.5
1562063755399636:0:0:-1:3:-6:1:0:1:-0.482422:-0.877441:0.218262:-0.3125:-0.5:-0.1875
1562063755458642:-2:2:0:6:-5:-1:1:2:-0.481934:-0.874512:0.214844:-1.4375:-0.25:-0.5
1562063755501647:-1:-4:-3:5:0:-1:-2:-1:-0.480957:-0.879883:0.210449:-0.25:0.125:0
1562063755558652:-1:-1:-4:11:0:-4:-1:-12:-0.477539:-0.881348:0.217773:-0.75:-0.0625:0
1562063755602657:0:0:-1:1:4:0:0:1:-0.488281:-0.869141:0.220703:0.25:0.5:0.125
1562063755661663:0:-1:2:-4:-1:-3:-2:2:-0.483398:-0.874512:0.21582:-0.3125:0.375:-0.25
1562063755702667:-1:-1:-1:-1:1:0:0:-2:-0.484375:-0.867676:0.211914:0.5:-0.1875:-0.4375
1562063755762673:-2:0:-1:0:-3:-2:-2:-1:-0.482422:-0.876465:0.214844:-0.875:-1:-1.1875
1562063755811678:-2:-1:1:-4:-2:-4:-1:0:-0.48291:-0.874023:0.208984:1.0625:-0.9375:-1.1875
1562063755863683:2:-1:-3:0:-1:0:2:-1:-0.484375:-0.877441:0.218262:-0.6875:-1:-0.625
1562063755902687:3:2:3:3:6:-1:-2:-4:-0.48291:-0.873047:0.222168:-0.125:-0.625:-0.375
1562063755961693:-1:0:-3:17:-3:-2:-1:1:-0.477051:-0.874023:0.214844:0.75:0.125:-0.8125
1562063756014698:0:-1:-2:-4:-5:-4:1:0:-0.470703:-0.875:0.224121:0.3125:0.125:-0.8125
1562063756062703:-1:-1:-2:-8:2:-1:-3:3:-0.485352:-0.877441:0.214355:-1.75:-0.8125:-0.5625
1562063756107707:-1:-3:0:-6:-3:-3:0:-4:-0.478027:-0.868652:0.222168:0.3125:0.125:-0.25
1562063756163713:0:3:5:3:3:2:1:-1:-0.476562:-0.881348:0.214355:-1.375:0:-0.125
1562063756216718:0:-1:-2:-5:-2:1:0:7:-0.479004:-0.870605:0.213379:0.25:0.3125:0.1875
1562063756260723:-1:0:2:1:-1:-4:-3:-3:-0.476074:-0.877441:0.21875:-1.8125:0.75:0
1562063756314728:1:0:0:2:2:1:-2:-3:-0.483398:-0.876465:0.220703:-0.3125:-0.0625:0
1562063756364733:-2:0:-4:-4:5:0:-1:-2:-0.480469:-0.872559:0.214355:-1.8125:0.0625:0.125
1562063756404737:-2:-1:1:4:-4:0:2:-3:-0.477051:-0.875:0.214355:-1.1875:-0.5:0.3125
1562063756464743:1:0:-2:-5:6:-2:-1:3:-0.479004:-0.874512:0.217773:-1.25:-0.625:0.125
1562063756517748:0:1:-1:-9:-1:2:0:5:-0.483398:-0.875488:0.213867:-0.3125:-0.5:0.5
1562063756561753:-1:-1:-3:-5:-2:-1:-1:-1:-0.480469:-0.871582:0.211914:0.625:0:0.5625
1562063756614758:-1:0:1:-2:-5:-2:-1:1:-0.479492:-0.869141:0.218262:0.25:0.4375:0.375
1562063756665763:-1:-2:0:4:0:-3:0:4:-0.478516:-0.875:0.213379:0.1875:0:0.5
1562063756719768:0:-1:1:5:1:2:2:12:-0.470703:-0.875977:0.214355:0.8125:0.0625:0.5625
1562063756764773:-1:-1:-5:-10:-1:-2:-2:-4:-0.484863:-0.874512:0.213867:-0.4375:0:0.875
1562063756816778:0:-1:1:2:-1:-1:1:7:-0.47998:-0.866699:0.212891:0.8125:0.875:0.6875
1562063756864783:-1:0:0:-8:-3:0:-1:-3:-0.478516:-0.871094:0.206055:1:0.5:0.4375
1562063756913788:-2:0:-1:-1:3:2:-2:-3:-0.484375:-0.869629:0.213379:0.8125:0.1875:0.3125
1562063756966793:0:0:0:1:-2:-4:-4:-1:-0.486328:-0.865234:0.220215:1.875:0.0625:0.625
1562063757003797:0:-1:-3:-11:-12:-2:-3:-3:-0.487305:-0.869629:0.218262:0.125:0.3125:0.125
1562063757063803:-1:-1:-3:-2:5:2:3:9:-0.48584:-0.870117:0.210938:0.5625:0.5:0.25
1562063757116808:-2:-1:-1:-1:0:-2:-2:0:-0.480957:-0.873047:0.213379:-0.8125:0.125:-0.0625
1562063757168813:-1:-2:-1:7:2:0:1:1:-0.48291:-0.873535:0.219727:-0.5625:0.875:-0.0625
1562063757223819:2:1:1:-1:0:2:1:1:-0.487305:-0.873535:0.217285:-0.1875:0.625:0
1562063757266823:-2:0:-2:0:-7:0:2:-2:-0.489746:-0.874023:0.213379:-1.5:0.5:0.5
1562063757319828:0:0:-1:-5:0:-2:-1:-2:-0.485352:-0.87207:0.21875:1.375:0.3125:0.25
1562063757363833:0:-2:-6:-9:0:-2:1:0:-0.487793:-0.861816:0.213379:-0.125:0.4375:-0.375
1562063757417838:1:-1:-1:-4:-4:-1:0:0:-0.48877:-0.867676:0.210938:0.5625:0.375:0.125
1562063757467843:-2:-2:-2:2:0:-2:-1:0:-0.481934:-0.866699:0.21582:-0.9375:-0.875:0
1562063757522849:1:0:0:5:3:-1:-4:1:-0.48584:-0.878418:0.214355:-2.3125:0.5:0.375
1562063757567853:-2:-4:0:-3:-7:-4:0:-1:-0.486328:-0.862793:0.217285:0.375:1.25:0.625
1562063757619858:-1:0:-2:-3:1:-2:-1:1:-0.489746:-0.869141:0.212402:-1.5:0.3125:0
1562063757667863:-2:-2:-2:4:1:-2:-1:0:-0.49707:-0.867188:0.210938:0.75:0.9375:0.0625
1562063757726869:-1:1:2:-4:-2:-1:0:-1:-0.484863:-0.869629:0.211426:-0.3125:0.0625:0.5625
1562063757764873:-1:-2:0:5:-1:-2:1:0:-0.492188:-0.869141:0.211426:-0.625:0.375:-0.25
1562063757828879:1:1:-1:-6:-4:3:2:2:-0.493164:-0.87207:0.207031:0.625:-0.125:0.25
1562063757865883:0:0:-4:0:-2:-2:-5:-4:-0.491211:-0.873535:0.219727:0.125:-0.5:-0.0625
1562063757926889:0:1:-1:10:1:-1:0:-1:-0.48877:-0.866699:0.220703:-0.125:0.125:0
1562063757967893:-1:0:-1:19:4:-2:-1:-2:-0.490234:-0.865234:0.212402:0.25:0.6875:-0.1875
1562063758027899:0:-1:1:7:2:0:0:0:-0.491211:-0.87207:0.222168:-0.1875:0.5:-0.4375
1562063758068903:2:0:-1:-6:-1:-1:-2:-1:-0.492188:-0.867676:0.217773:-0.125:-0.6875:0.25
1562063758128909:0:-1:-1:10:-1:-1:-2:-1:-0.488281:-0.864258:0.219727:-0.125:0.1875:0.25
1562063758166913:-2:-2:-6:-5:-3:5:3:1:-0.494629:-0.871582:0.210449:-0.5:-0.0625:-0.125
1562063758226919:-2:-1:1:2:0:1:-1:-1:-0.490234:-0.861328:0.220215:0.1875:-0.1875:-0.25
1562063758281925:0:1:3:-2:-4:1:1:1:-0.492188:-0.867188:0.214844:-1.5625:-0.3125:-0.1875
1562063758326929:3:1:3:-53:1:7:2:3:-0.496094:-0.871094:0.20752:-6:-3.375:1.25
1562063758368933:1:4:9:54:1:5:4:1:-0.520996:-0.881836:0.143066:4.625:-19.25:5.25
1562063758428939:2:7:29:91:90:18:9:7:-0.578613:-0.891602:0.102051:19.5:-40.25:4.5
1562063758480945:19:11:59:-61:-3:100:3:9:-0.423828:-0.629395:0.379395:26.125:-90:-8.0625
1562063758529949:-7:-7:7:-54:20:-28:1:-7:-0.0668945:-1.06445:0.662109:-6.3125:-37.25:-50.6875
1562063758582955:9:15:-77:-118:-19:-38:4:1:-0.57959:-0.90332:0.174316:-89.75:-13.5625:18.25
1562063758631960:1:-3:-75:-51:-120:-20:-1:3:-0.401855:-0.94873:0.307129:-11.4375:-10.375:5.375
1562063758670964:-1:-5:8:73:22:23:8:0:-0.343262:-0.788574:0.281738:-24.9375:-7.25:9.625
1562063758728969:-7:-7:-28:-1:29:-3:0:-5:-0.413574:-0.911621:0.256348:-12.75:2.625:-4.5625
1562063758784975:-2:-4:-23:-11:13:21:6:5:-0.40332:-0.882812:0.270508:4.3125:9.4375:-7.125
1562063758829979:-13:7:5:21:8:8:5:3:-0.370605:-0.90332:0.325195:30.125:22.125:-1.5625
1562063758886985:-35:-2:-1:7:-1:5:71:50:-0.415039:-0.857422:0.34668:37:42.4375:0.375
1562063758931990:-21:-5:-2:5:0:-4:17:-2:-0.40625:-0.879883:0.319824:5.125:61.875:7.5625
1562063758983995:-11:4:3:1:-3:-2:-39:-14:-0.493652:-0.986328:0.0991211:-56.0625:22.6875:19.5
1562063759028999:-21:-6:-11:-25:-25:-6:2:-19:-0.504395:-0.842773:0.180664:-22.625:-5.375:5.3125
1562063759085005:-6:-3:-4:4:-5:-2:11:3:-0.503418:-0.895996:0.211426:-6:-17.6875:1.125
1562063759130009:1:-1:-1:3:2:2:23:13:-0.501465:-0.856445:0.276855:9:-8.0625:7.25
1562063759188015:3:-1:5:-4:-1:1:5:-3:-0.450195:-0.841309:0.271973:3.4375:6.75:-3.125
1562063759231020:-1:0:-4:-20:-9:-5:3:7:-0.495605:-0.884766:0.221191:-6:8.25:-5.375
1562063759284025:0:-1:-3:10:-7:-1:5:-4:-0.509766:-0.879883:0.211426:0.3125:7.9375:-3.4375
1562063759329029:-2:1:4:-2:5:1:-3:-7:-0.499512:-0.864258:0.214844:-6.3125:1.875:1.0625
1562063759389035:0:-1:-4:-5:0:-2:0:-3:-0.476074:-0.875488:0.225098:-4.1875:2.4375:0.1875
1562063759445041:-1:1:6:19:4:-1:-1:-5:-0.485352:-0.875488:0.21582:-5.625:0:-1.25
1562063759490045:-3:-1:-2:8:1:-1:4:3:-0.489258:-0.873535:0.205566:-1:0.25:-0.9375
1562063759532050:0:-1:-1:-10:-1:-2:-11:0:-0.477051:-0.878418:0.216797:-3.0625:2.0625:-1.1875
1562063759592056:3:0:0:3:2:-1:1:-1:-0.487793:-0.872559:0.206543:0.4375:0.5625:0.375
1562063759630059:-2:-1:-2:12:-6:1:-1:-3:-0.485352:-0.876465:0.213867:-1.8125:1.75:0.125
1562063759689065:-2:0:-1:12:3:2:0:1:-0.491211:-0.865234:0.208496:0.25:0.9375:1.0625
1562063759734070:-2:-2:1:-2:0:0:-1:-2:-0.486328:-0.875:0.206055:1.1875:1.125:0.6875
1562063759794076:-3:-1:-2:-5:-3:-2:2:0:-0.490234:-0.86377:0.205566:1.625:1.1875:-0.1875
1562063759831080:1:1:1:4:1:-1:-3:-3:-0.488281:-0.873535:0.202637:1.5625:0.9375:-0.0625
1562063759892086:-1:0:-1:5:1:0:1:-20:-0.493164:-0.869141:0.206055:-0.4375:0.1875:-0.5625
1562063759944091:0:-3:1:5:-3:-3:3:2:-0.490234:-0.876465:0.209473:-0.0625:-0.6875:0.0625
1562063759993096:1:-2:2:14:0:-2:-2:-2:-0.484863:-0.869141:0.20752:2:-0.75:0.25
1562063760035100:1:-2:-3:3:13:-2:2:-1:-0.487305:-0.876465:0.211914:2.75:-1:0.375
1562063760094106:-1:0:-3:-4:2:1:4:3:-0.493164:-0.858398:0.213867:1.8125:0.0625:-0.0625
1562063760147111:-1:-2:-7:-13:-7:0:-3:-5:-0.491699:-0.883789:0.213867:0.25:-0.875:0.6875
1562063760192116:-2:-2:-1:5:-2:0:3:1:-0.48584:-0.861328:0.21582:4.375:0:0.875
1562063760245121:1:0:-3:-10:3:0:1:0:-0.492676:-0.873535:0.216309:-0.5:-0.375:0.3125
1562063760293126:1:0:1:-4:-3:1:1:1:-0.494141:-0.858887:0.216309:0.9375:0.3125:-0.3125
1562063760334130:0:-1:2:3:-2:-3:-1:-2:-0.493652:-0.861328:0.213379:-1.25:-1:-0.625
1562063760394136:-2:-2:1:23:-9:-2:-5:-4:-0.490723:-0.875977:0.217285:0.4375:-0.125:0.25
1562063760447141:0:-1:0:-5:-1:-2:3:-1:-0.48877:-0.866211:0.212402:0.3125:0.0625:0.25
1562063760491146:0:0:0:-5:-3:0:0:0:-0.495117:-0.861328:0.217773:0.125:-0.1875:-0.125
1562063760544151:0:0:-1:-1:-3:-4:-2:1:-0.496582:-0.863281:0.223633:0.5625:-0.0625:-0.25
1562063760592156:1:0:1:-2:-2:0:0:0:-0.491699:-0.864746:0.21582:0.375:-0.4375:-0.25
1562063760649161:0:2:5:2:4:-1:-6:1:-0.493652:-0.862793:0.224121:-0.0625:-0.1875:-0.25
1562063760694166:-3:-3:-5:-6:0:0:0:0:-0.488281:-0.867676:0.22168:0:0.5:-0.5
1562063760747171:-2:-2:2:1:-2:-2:-1:-3:-0.488281:-0.868164:0.216309:-0.3125:0.1875:-0.25
1562063760792176:-2:0:-1:-5:1:1:1:4:-0.492676:-0.868164:0.217285:-0.125:-0.5:0.625
1562063760837180:0:-2:0:16:-8:-2:-2:1:-0.488281:-0.865234:0.220215:0.0625:0.25:0.4375
1562063760897186:0:0:1:12:-1:1:4:4:-0.495605:-0.862305:0.218262:0.75:-0.0625:0.5625
1562063760948191:0:0:2:1:3:2:2:2:-0.499023:-0.860352:0.220215:-0.25:0.0625:0.3125
1562063760994196:1:1:3:2:-8:-2:3:0:-0.493164:-0.867676:0.216309:0:0.125:-0.0625
1562063761054202:0:0:-1:1:2:1:5:0:-0.494629:-0.864258:0.225098:-0.8125:0.5625:0.0625
1562063761094206:0:-1:0:3:-5:0:-4:-3:-0.489258:-0.862305:0.222656:0.125:-0.125:-0.1875
1562063761155212:1:1:0:-9:1:0:5:3:-0.496582:-0.861328:0.221191:0.4375:0.5:-0.5
1562063761197216:-3:-2:-1:-3:-3:-2:-2:-1:-0.489258:-0.870605:0.21875:0.25:-0.0625:-0.4375
1562063761249221:0:-1:-1:3:3:1:-3:-4:-0.489746:-0.865234:0.222656:-0.5:-0.1875:-0.5
1562063761294226:-1:-1:-3:-11:-4:-1:0:0:-0.494629:-0.87207:0.221191:-0.8125:-0.125:-0.3125
1562063761354232:-1:0:-2:-6:-6:1:-2:3:-0.491211:-0.86084:0.219727:-0.125:-0.125:-0.125
1562063761395236:-1:1:2:1:4:2:-1:-9:-0.490234:-0.861816:0.220215:0.8125:0.1875:-0.5625
1562063761454242:-1:1:3:-10:-2:1:0:1:-0.497559:-0.863281:0.220215:-0.5:-0.25:-0.5
1562063761497246:-1:0:-2:-2:0:0:3:3:-0.496094:-0.865723:0.220703:-0.5625:-0.125:-0.4375
1562063761556252:-1:0:4:3:-2:-1:-2:-1:-0.491211:-0.870605:0.220703:-0.6875:0.125:-0.625
1562063761594256:0:-3:-3:-9:-3:-2:-2:-12:-0.499023:-0.858887:0.217285:-0.5:0.3125:-0.5
1562063761654262:-1:0:2:0:-4:0:3:0:-0.48877:-0.869141:0.21582:-0.25:0.5625:-0.8125
1562063761707267:-1:0:-2:8:-2:-2:-2:-19:-0.488281:-0.867188:0.220703:-0.6875:0:-0.5625
1562063761751272:0:-2:2:7:0:1:5:2:-0.492188:-0.867676:0.21875:-0.4375:-0.0625:-0.25
1562063761797276:1:1:1:1:-4:1:-2:2:-0.489258:-0.862305:0.213379:-0.375:0.375:-0.1875
1562063761856282:-2:0:2:3:4:-3:3:0:-0.489258:-0.874512:0.209961:-1.1875:0.25:-0.1875
1562063761909287:-2:0:1:9:2:1:-1:0:-0.492188:-0.861816:0.21875:-0.8125:0:-0.375
1562063761940290:0:3:2:-5:-2:-1:1:-1:-0.495117:-0.858887:0.217773:-2.4375:-0.75:-0.3125
1562063761999296:-1:-1:-3:-7:0:-1:-1:3:-0.489746:-0.873535:0.216309:-1.6875:-0.5625:-0.5
1562063762060302:0:0:3:0:2:-1:2:3:-0.487793:-0.865234:0.216797:-3.6875:-0.875:-0.25
1562063762112308:0:-2:-1:-3:-3:0:2:5:-0.494141:-0.867676:0.214844:-3.125:-0.8125:-0.5
1562063762157312:1:-2:-1:0:-3:-1:-3:-7:-0.48877:-0.869141:0.210449:-1.5625:0.1875:-0.1875
1562063762216318:1:3:2:-1:6:3:-1:-12:-0.495117:-0.867188:0.216309:-2.25:0.1875:-0.3125
1562063762257322:-1:-1:1:-5:2:0:0:-2:-0.489746:-0.875488:0.202148:-0.6875:0.125:0.1875
1562063762315328:-1:0:-3:-2:-3:0:-5:-8:-0.485352:-0.867188:0.198242:0.1875:0.1875:-0.0625
1562063762359332:1:2:2:10:1:-1:-1:-1:-0.490723:-0.867676:0.208008:0.8125:0.1875:-0.1875
1562063762412338:0:-1:0:-2:-2:-1:-2:3:-0.492676:-0.867676:0.211426:0.25:0:0.625
1562063762457342:-1:1:-1:3:3:-1:0:1:-0.486328:-0.868164:0.216797:-0.0625:0.875:0.5625
1562063762516348:-1:-1:0:1:-2:-3:-4:0:-0.493164:-0.875:0.208008:0.25:1:0.4375
1562063762569353:-1:0:-2:-8:-8:-4:-3:1:-0.494141:-0.865723:0.210938:0.5:1.125:0.375
1562063762614358:-1:1:4:5:-2:-2:0:-11:-0.490723:-0.868164:0.204102:0.8125:0.5:0.375
1562063762659362:0:0:2:-5:2:-1:-1:4:-0.49707:-0.867188:0.208496:-0.0625:0.125:-0.125
1562063762711368:1:-1:0:2:1:-2:0:1:-0.497559:-0.86084:0.214844:0.1875:0.1875:-0.0625
1562063762765373:-1:1:3:13:2:-2:-2:-1:-0.492188:-0.866699:0.214355:-0.3125:-0.125:0
1562063762819378:0:-1:1:4:1:-1:-2:-2:-0.493652:-0.868164:0.20752:-0.875:-0.125:0.25
1562063762862383:1:-1:1:-4:-3:1:-1:-1:-0.497559:-0.867188:0.208008:-0.9375:-0.375:0.125
1562063762914388:-1:0:-3:-1:3:1:-10:0:-0.495605:-0.865723:0.206543:-0.75:-0.8125:0.25
1562063762959392:-3:-3:-3:7:-1:-1:1:-3:-0.491699:-0.864258:0.20752:-6.25:-2.25:0.6875
1562063763019398:1:1:-2:-11:-3:0:0:1:-0.501953:-0.875:0.194336:-7.0625:-3.625:0.6875
1562063763060402:1:3:-4:-17:6:4:5:1:-0.484375:-0.869141:0.211914:1.125:-1.4375:0.875
1562063763120408:0:0:0:6:-5:-1:0:-1:-0.492676:-0.865723:0.208984:-1.625:-1.25:0.6875
1562063763162413:0:0:0:8:2:-1:0:3:-0.501465:-0.870605:0.206055:-0.75:-1.0625:0.75
1562063763214418:-1:-1:-3:-12:11:2:0:0:-0.503418:-0.86377:0.194336:-1.0625:-4.8125:1.0625
1562063763259422:2:1:2:-15:-10:-6:-2:3:-0.525391:-0.863281:0.0834961:-15:-23:5.875
1562063763319428:-11:-16:-8:103:4:-18:-9:-12:-0.578613:-0.919922:0.10498:13.0625:-53.4375:6.875
1562063763360432:2:-7:22:78:6:-14:-14:-4:-0.320801:-0.82373:0.400391:47.9375:-55.5625:-8.5625
1562063763419438:13:24:70:9:55:36:19:12:-0.279297:-0.836914:0.479004:-19.0625:-32.4375:-20.5
1562063763463443:3:4:-17:-81:70:18:5:3:-0.563965:-0.950195:0.22168:-71.25:-5.25:-9.75
1562063763522449:3:7:-8:52:-8:-54:-6:-1:-0.462891:-0.907715:0.222168:-32.625:-1.9375:-11.0625
1562063763574454:-3:-11:-7:95:47:45:9:3:-0.386719:-0.878418:0.182617:-10.1875:-4.9375:-5.5
1562063763612458:-3:-4:-25:4:-128:-12:-2:-4:-0.40918:-0.896484:0.196777:5.0625:-0.0625:2.0625
1562063763665463:-10:-15:37:126:7:-34:-22:-11:-0.416504:-0.925293:0.22998:-1.375:2.6875:-5.1875
1562063763717468:-2:-3:-2:-34:18:0:-3:-2:-0.429199:-0.880371:0.218262:1:1.8125:-4.875
1562063763762473:4:1:-38:-122:4:26:4:3:-0.426758:-0.875488:0.21875:6.4375:1.875:1.4375
1562063763823479:6:13:27:-16:-58:-11:-4:7:-0.405273:-0.906738:0.255371:4.8125:2.125:1.125
1562063763874484:-4:-5:-3:-1:-10:-6:1:-4:-0.404785:-0.911133:0.254395:2.6875:5.3125:4.375
1562063763923489:24:-2:-9:-19:-7:4:7:-8:-0.355957:-0.868164:0.277832:13.0625:18.5625:5.8125
1562063763965493:-23:3:-1:-18:-6:10:51:-40:-0.446289:-0.891602:0.291992:57.75:57.5625:18.0625
1562063764024499:-28:9:-4:-8:-2:0:-44:-36:-0.470215:-0.814453:0.268066:14.375:66.75:11.375
1562063764076504:5:1:3:13:1:4:0:17:-0.537598:-0.955078:0.0761719:-24.6875:34.3125:5.625
1562063764122509:-1:3:2:-4:-33:5:5:20:-0.496582:-0.813965:0.180176:6.9375:3.9375:10.1875
1562063764174514:1:-4:-1:-12:4:-2:4:7:-0.516602:-0.84668:0.169434:-18.4375:-13.875:4.5
1562063764222519:-4:-3:-4:-10:9:-6:-6:-5:-0.512207:-0.838379:0.258301:12.375:-3:-1.1875
1562063764280524:-4:-2:-1:34:-3:-4:-6:6:-0.473145:-0.835449:0.240234:2.3125:5.25:-6.4375
1562063764324529:0:3:3:-4:-6:1:-6:-2:-0.498535:-0.921875:0.205566:-2.4375:4.625:-3.5
1562063764377534:-2:-2:-2:29:-2:0:2:-2:-0.520508:-0.846191:0.196777:7.375:5.0625:-1.1875
1562063764423539:0:-1:-9:-12:0:1:8:16:-0.508301:-0.869629:0.207031:-2:0:0.5625
1562063764474544:0:-2:-2:-8:-2:3:-1:-5:-0.49707:-0.858398:0.205078:1.875:-1.0625:-0.4375
1562063764530549:-4:-2:-5:-4:-8:-2:-5:-12:-0.492676:-0.858398:0.208008:0:-1.5:-2.5
1562063764579554:1:-2:-2:-13:6:1:-1:3:-0.49707:-0.871094:0.20752:-1.75:-0.4375:-2.625
1562063764627559:0:-1:0:-5:3:-1:2:-1:-0.491211:-0.864258:0.205078:-1.4375:-1:0.25
1562063764677564:0:2:3:-2:1:2:10:4:-0.494629:-0.863281:0.218262:1.9375:0.375:0.375
1562063764727569:0:-2:-2:-2:1:0:-2:2:-0.502441:-0.861816:0.210449:0.25:0.25:-1.4375
1562063764769573:-3:-3:-4:-5:2:-1:1:4:-0.5:-0.870605:0.207031:0.3125:-0.3125:-1.6875
1562063764829579:-2:-1:-2:-4:1:1:0:1:-0.495117:-0.866211:0.211914:-0.125:-1.375:-1.1875
1562063764879584:-1:-2:-5:-1:4:-1:2:-5:-0.486328:-0.870605:0.210938:0:-0.5:-1.375
1562063764926589:-1:-1:1:-1:-5:-4:-2:-3:-0.491211:-0.85498:0.214844:-0.75:-0.5625:-0.0625
1562063764977594:0:-1:-4:-4:-12:-5:-7:-3:-0.491699:-0.876953:0.206055:-0.875:-0.625:0.375
1562063765036600:0:-1:-7:-13:-15:-3:-3:2:-0.487305:-0.859375:0.210449:0.25:0.5:0.4375
1562063765082605:0:0:2:8:2:-2:-3:-5:-0.489258:-0.873047:0.214355:-1.9375:0.8125:-0.0625
1562063765130609:0:-3:-3:13:-4:-1:-1:-7:-0.497559:-0.865723:0.207031:1.375:-0.625:0.3125
1562063765178614:-1:-2:-3:-4:-3:-3:-1:-4:-0.493164:-0.865723:0.211914:0.9375:0.0625:-0.4375
1562063765227619:0:-1:-3:-7:-12:-2:1:3:-0.495117:-0.873047:0.206055:-0.4375:0.125:-0.5
1562063765276624:-1:0:1:1:5:3:-12:-9:-0.494141:-0.866699:0.20752:1.625:0.1875:0.125
1562063765336630:-1:-4:-3:-1:-2:-3:-1:-2:-0.490234:-0.873535:0.213379:0:0.1875:-0.8125
1562063765382635:0:0:0:-2:-2:0:-2:-8:-0.494141:-0.868652:0.206543:-0.375:0:-0.625
1562063765430639:0:-2:2:1:3:-1:4:5:-0.492188:-0.864746:0.210449:0.5:0.25:-0.0625
1562063765479644:-2:-1:1:-3:-2:0:0:2:-0.489746:-0.865723:0.205566:0.875:0.3125:0.25
1562063765539650:0:1:-2:-5:-15:-1:2:-3:-0.489746:-0.879395:0.211426:-0.25:0.375:0.6875
1562063765586655:-2:-4:-3:-11:-18:-2:-4:0:-0.491699:-0.866211:0.217773:0.5625:0.625:0.875
1562063765632660:0:-2:-1:-3:-18:-2:-3:1:-0.492676:-0.866699:0.215332:0.8125:0.6875:0.375
1562063765682665:1:0:-2:-2:2:1:2:6:-0.5:-0.859863:0.213867:2.125:0.125:0.3125
1562063765741671:0:0:-1:-3:3:-1:3:-1:-0.499512:-0.867188:0.211426:0.0625:-1:-0.125
1562063765790675:0:2:3:1:5:-3:-3:1:-0.494141:-0.858887:0.215332:0.6875:-0.6875:-0.625
1562063765838680:0:-2:0:4:2:0:-1:-3:-0.492188:-0.870117:0.215332:-1.25:-0.5625:-0.5625
1562063765889685:1:0:3:-3:-5:1:2:1:-0.491699:-0.865234:0.215332:0.0625:0.625:0.25
1562063765932690:-1:-1:0:5:-5:-2:1:0:-0.488281:-0.875977:0.209473:0.625:0.5625:0.6875
1562063765992696:-1:-2:-4:17:3:2:-1:-3:-0.496094:-0.864746:0.21582:0.1875:0.75:0.5
1562063766042701:1:-1:1:-1:-1:-3:-3:-3:-0.499512:-0.864746:0.214844:0.5:0.375:0.4375
1562063766090705:0:0:1:-7:0:-2:-1:-2:-0.501465:-0.859863:0.223633:0.875:-0.3125:-0.1875
1562063766139710:-1:2:-1:-5:-1:1:3:1:-0.499023:-0.865234:0.21875:1.75:-0.4375:-0.25
1562063766190715:0:1:2:-2:0:-1:-4:2:-0.491699:-0.867676:0.220215:-1.3125:0.125:-0.375
1562063766231720:0:1:2:-13:-7:-1:1:0:-0.495117:-0.866211:0.225586:0.1875:0.625:0
1562063766292726:-1:0:-5:-6:1:1:2:0:-0.499023:-0.864258:0.214844:0.25:0.5:0.5
1562063766342731:-2:-1:-1:6:0:-4:4:4:-0.496582:-0.85498:0.225586:0.5:0.25:0.1875
1562063766389735:-2:-1:-2:-1:-1:2:1:-2:-0.499023:-0.869141:0.213379:-0.5625:0.0625:-0.25
1562063766439740:0:0:2:2:0:0:-2:4:-0.5:-0.866211:0.216797:0.625:-0.75:0.25
1562063766492746:-1:1:0:-3:-2:0:0:-4:-0.49707:-0.866211:0.223633:-0.1875:-0.375:0.25
1562063766545751:-2:-2:0:-6:-4:-1:-4:-4:-0.49707:-0.860352:0.229004:0.125:0:0.4375
1562063766592756:-1:-2:-3:-7:5:-1:-2:0:-0.494629:-0.865234:0.209961:-0.1875:0.8125:0.1875
1562063766633760:0:-1:1:-1:4:-1:1:2:-0.501953:-0.854492:0.21582:-0.3125:0:0.125
1562063766693766:1:1:-1:5:0:2:2:1:-0.5:-0.858887:0.216797:-0.375:0.0625:-0.375
1562063766747771:-1:-1:0:-6:1:2:3:1:-0.495117:-0.863281:0.214844:-0.6875:-0.0625:-0.0625
1562063766791776:-1:-1:1:0:0:-2:0:0:-0.494141:-0.86084:0.214355:0.375:0.125:0
1562063766844781:1:-2:-1:-5:-2:2:10:1:-0.498047:-0.861816:0.218262:-0.0625:0:0.25
1562063766892786:0:0:2:6:1:-1:-2:-1:-0.502441:-0.858398:0.221191:0.625:0.125:-0.125
1562063766941791:1:0:-1:3:-2:0:0:0:-0.499512:-0.86377:0.218262:-1.1875:0:-0.125
1562063766992796:0:-2:-2:-6:-1:0:-2:0:-0.5:-0.860352:0.21582:-0.0625:0.1875:-0.125
1562063767047801:0:-2:-3:1:3:3:4:2:-0.498535:-0.862793:0.220703:-0.3125:-0.3125:-0.125
1562063767091806:1:-2:-3:-4:2:-1:-4:2:-0.500488:-0.859863:0.223633:0:0.3125:-0.125
1562063767144811:0:-1:0:-8:-1:-1:0:3:-0.502441:-0.855469:0.221191:-0.0625:0.0625:-0.3125
1562063767192816:1:0:0:-6:4:1:-1:5:-0.497559:-0.864258:0.211426:-1.125:0:-0.75
1562063767250821:2:0:4:8:6:1:-1:1:-0.497559:-0.864746:0.218262:-0.125:0.1875:-0.625
1562063767301827:-1:-2:1:-4:2:-3:-2:-2:-0.494141:-0.86377:0.215332:-0.8125:0.3125:-0.75
1562063767347831:-2:-3:-5:1:-1:-2:-3:-2:-0.500977:-0.863281:0.217773:-0.75:-0.125:-0.5
1562063767392836:-3:-1:-1:-3:1:2:-3:-9:-0.500488:-0.86084:0.225098:-0.9375:0:0
1562063767451842:1:1:0:2:2:-2:0:-1:-0.498047:-0.865723:0.216797:-1.5:0.1875:-0.1875
1562063767504847:-1:-1:0:-3:0:0:-4:-2:-0.496094:-0.861328:0.216797:0.1875:-0.0625:-0.25
1562063767555852:-2:-2:1:5:0:-2:-3:-18:-0.504883:-0.86377:0.220215:-1.125:0:-0.0625
1562063767594856:1:-1:-1:6:10:1:-2:5:-0.500977:-0.861816:0.219238:-0.5625:0.3125:0.25
1562063767654862:0:1:3:7:-4:-2:-4:4:-0.495117:-0.866211:0.219727:-0.25:0.3125:-0.3125
1562063767695866:0:0:-2:-5:-3:-1:0:4:-0.506348:-0.861816:0.208496:-1.375:-0.5:-0.3125
1562063767743871:-2:-2:-6:-6:-2:-1:1:2:-0.495605:-0.859863:0.211426:-0.375:-0.25:0
1562063767803877:-2:-1:-3:-2:7:1:4:-4:-0.498535:-0.86084:0.213867:-0.875:-0.75:-0.1875
1562063767855882:-1:-2:0:0:-10:-2:-2:2:-0.501953:-0.862305:0.212402:-0.1875:-0.3125:-0.0625
1562063767894886:-1:0:-7:-10:3:-2:0:4:-0.498535:-0.864746:0.212402:-0.75:-0.125:-0.1875
1562063767953892:-2:0:1:4:1:-4:-3:-2:-0.501953:-0.864258:0.212891:-3.5:-1.1875:-0.3125
1562063768007897:-1:-2:-5:-6:-1:-2:-2:-3:-0.500977:-0.866699:0.210449:0.1875:-2.125:0.4375
1562063768054902:-1:0:-2:11:-2:-3:-1:-2:-0.50293:-0.85498:0.212402:-0.75:-1.375:0.1875
1562063768104907:-1:0:2:4:4:1:8:-5:-0.492188:-0.873047:0.208496:-1.75:-0.9375:0
1562063768155912:0:1:1:4:-3:1:-2:-5:-0.498535:-0.856934:0.222168:1:0.625:0.25
1562063768209917:1:0:1:10:0:0:-2:-3:-0.497559:-0.87207:0.211426:-0.5:1.1875:-0.0625
1562063768253922:-2:-3:0:7:-11:-5:-6:-11:-0.504395:-0.85791:0.212891:-1.8125:0.25:0.5
1562063768307927:0:-2:-3:-38:-1:2:-4:-2:-0.500977:-0.87207:0.20459:-4.0625:-2.4375:0.9375
1562063768354932:-1:-1:-1:27:38:-4:-5:5:-0.512695:-0.871094:0.199707:-0.875:-7.9375:2.8125
1562063768395936:-7:-9:-19:-23:-41:-14:-4:-1:-0.512695:-0.890137:0.166992:0.6875:-14.3125:3.25
1562063768457942:-3:-1:-3:-34:-21:-7:6:-4:-0.54541:-0.857422:0.17627:20.375:-33.8125:1.125
1562063768509947:23:17:13:-67:6:21:11:10:-0.467285:-0.755371:0.348145:16.125:-56.0625:-6.9375
1562063768554952:-12:-19:-29:117:70:-27:-16:-8:-0.408203:-0.898438:0.399414:-5.375:-34.0625:-15
1562063768614958:-4:-3:60:-60:-28:-11:-7:-5:-0.404785:-0.888184:0.336914:-19.1875:-5.125:-10.625
1562063768666963:-3:-2:-12:21:16:2:-5:-7:-0.452148:-0.851562:0.286133:-17.25:2.375:-3.1875
1562063768718968:13:8:53:49:-57:0:-6:7:-0.453125:-0.868164:0.259277:-22.0625:-6.25:0.9375
1562063768757972:-9:-17:22:-58:-121:-36:-11:-11:-0.464844:-0.889648:0.285645:-7.6875:-6.1875:-0.3125
1562063768816978:-10:5:-11:126:69:11:9:6:-0.414062:-0.888184:0.275879:-11.5625:-3.3125:-3.1875
1562063768869983:4:4:25:43:35:-3:-2:0:-0.427246:-0.885742:0.26709:-7.0625:-0.6875:-4.25
1562063768917988:3:12:-2:-90:5:31:17:10:-0.432617:-0.908691:0.245605:-11:-1:-2.875
1562063768966993:4:9:7:78:60:-1:-2:0:-0.419922:-0.890137:0.258301:-2.1875:1.0625:0.125
1562063769018998:-3:-7:-9:89:29:-5:-4:-3:-0.429199:-0.875:0.254883:0.0625:1.875:2.5
1562063769073004:-11:-9:5:-41:-18:-13:-9:-16:-0.425293:-0.899902:0.248535:12.0625:4:2.3125
1562063769117008:0:5:-10:-2:8:2:8:-8:-0.448242:-0.85791:0.262695:13.375:5.4375:1.875
1562063769171013:-20:-6:-10:-25:-6:-11:27:2:-0.407227:-0.850586:0.26123:9.9375:8.8125:-5.6875
1562063769218018:6:-2:-6:2:-10:-5:-2:2:-0.445801:-0.89209:0.316895:10.9375:13.25:-7.375
1562063769267023:13:-2:-2:12:9:6:2:12:-0.412109:-0.897949:0.289551:-0.1875:22.5:-6.4375
1562063769319028:-10:-10:-7:-3:-5:-5:-4:15:-0.442871:-0.929688:0.220215:3.0625:10.6875:-0.5625
1562063769379034:-7:-5:-3:11:-3:-5:-13:1:-0.411621:-0.88916:0.291992:8.625:21.8125:5.3125
1562063769417038:1:-2:2:-5:-5:-2:-22:-16:-0.469238:-0.898926:0.231934:-10.4375:15.3125:5.875
1562063769477044:-2:2:1:-8:-3:1:5:10:-0.470703:-0.833496:0.256348:1.9375:5.75:6.375
1562063769530049:-19:6:-1:4:-7:-3:-20:19:-0.482422:-0.879883:0.225098:-12.1875:0.25:-0.9375
1562063769581054:4:1:1:-6:10:2:12:-6:-0.453125:-0.858398:0.273438:1.25:0.9375:-0.9375
1562063769619058:2:1:3:-1:5:1:-6:-6:-0.463867:-0.881348:0.227051:-6.5:-1.375:-0.25
1562063769679064:-1:-2:-5:-11:4:1:-3:-4:-0.458984:-0.888184:0.25293:-0.9375:0.8125:1.4375
1562063769733070:1:-1:-1:0:1:-4:-10:-4:-0.466309:-0.855469:0.239258:2.625:1.625:0.9375
1562063769777074:-1:-3:0:2:-2:0:-4:-6:-0.46875:-0.88916:0.248535:-4.375:2.875:-0.25
1562063769829079:0:-1:-1:11:3:0:-8:-16:-0.469727:-0.865723:0.230957:2.625:2.375:-0.75
1562063769881084:0:-1:-4:-18:-3:-3:1:-1:-0.465332:-0.898438:0.230469:-4:0.875:-1.0625
1562063769919088:0:-1:-3:-6:-1:-4:-1:0:-0.466797:-0.865723:0.231934:3.625:0.4375:-1.125
1562063769983095:-1:2:3:-9:2:0:-6:1:-0.462402:-0.884277:0.231445:-3.0625:-0.375:0.25
1562063770032100:0:0:1:29:-2:-1:2:-1:-0.467285:-0.875:0.239746:-1:0.9375:-0.5
1562063770080104:2:0:-2:15:3:4:0:5:-0.467773:-0.872559:0.234863:-0.75:-0.5:0.25
1562063770130109:0:0:-1:-5:-1:-2:0:7:-0.46582:-0.874023:0.246094:-0.625:0.0625:-0.75
1562063770182115:0:-3:-6:-1:-7:-2:5:1:-0.467285:-0.867676:0.237793:1.625:0.1875:-0.3125
1562063770236120:-2:-1:-2:15:1:0:7:12:-0.463867:-0.879395:0.23291:-0.0625:-0.0625:-0.6875
1562063770279124:-2:-1:-1:-11:1:-3:-4:-5:-0.47168:-0.870117:0.242676:-1.125:-0.9375:-0.4375
1562063770339130:-3:-1:-2:10:8:-2:-6:-2:-0.464355:-0.887695:0.234863:-1.8125:0.9375:-0.375
1562063770383135:1:-2:-1:-10:-2:-2:-4:-1:-0.462891:-0.873535:0.231445:0.1875:-0.75:0.125
1562063770438140:-1:0:1:16:4:-5:-2:1:-0.460449:-0.871582:0.232422:1.75:0.6875:-0.6875
1562063770482145:1:-1:-7:-7:-3:-2:-1:2:-0.466309:-0.869141:0.234863:-0.6875:-0.875:-1.75
1562063770535150:2:-1:-3:5:-1:0:5:0:-0.460449:-0.881348:0.23877:-1.4375:-0.1875:-1.9375
1562063770580154:1:0:0:1:1:1:2:3:-0.463379:-0.876465:0.232422:-1.625:-1.3125:-1
1562063770640160:-1:1:1:1:-1:0:3:-8:-0.460449:-0.872559:0.238281:-0.125:-0.1875:-0.3125
1562063770683165:-1:1:-1:-8:2:1:-5:-8:-0.457031:-0.878906:0.237305:-0.375:-0.4375:-0.625
1562063770739170:-1:1:0:-3:0:-1:6:7:-0.456055:-0.875:0.237305:-0.25:-0.125:-0.75
1562063770781174:-1:1:1:-5:-2:1:-3:5:-0.459961:-0.880371:0.241699:-1.0625:0.125:-0.8125
1562063770835180:-2:-1:-3:-7:-3:2:-1:-14:-0.458008:-0.879395:0.233398:-0.9375:-1:-0.1875
1562063770882185:0:-3:-2:-1:-5:0:-3:2:-0.460938:-0.882812:0.235352:-0.4375:0:-0.125
1562063770942191:0:-2:0:-2:3:3:-1:-5:-0.458008:-0.878418:0.238281:-1:0:-0.1875
1562063770992196:-3:-1:0:13:9:-1:7:8:-0.458984:-0.879883:0.236328:0.375:0.1875:-0.0625
1562063771044201:0:0:-1:-2:-2:2:0:5:-0.458496:-0.881836:0.233887:-0.6875:0.9375:0.1875
1562063771082205:0:-1:-1:-12:-6:2:-1:-2:-0.462402:-0.871582:0.240234:-0.25:0.875:0.3125
1562063771142211:-2:1:1:-4:-1:-4:-5:-11:-0.461914:-0.867676:0.23877:-0.1875:0:0.5
1562063771195216:-3:2:0:-7:-2:-1:-3:-5:-0.462402:-0.886719:0.226074:-0.25:0.9375:0.0625
1562063771245221:-1:-1:-2:-3:-4:0:1:6:-0.464844:-0.876465:0.233398:-1.375:-0.6875:0.75
1562063771284225:0:0:0:-6:0:-2:-2:-1:-0.462891:-0.873535:0.237305:1.375:0.25:0.1875
1562063771345231:2:-1:-2:8:-4:-1:8:14:-0.459961:-0.880371:0.234863:-1.25:-0.375:-0.0625
1562063771397236:0:-2:0:-15:-4:-3:-5:-4:-0.463379:-0.874023:0.230469:1.375:1.5625:0.3125
1562063771442241:-1:1:2:-9:4:-5:-6:-8:-0.462402:-0.873535:0.230469:1.3125:1:0.6875
1562063771498246:-1:-1:-5:-1:1:2:-3:-3:-0.461426:-0.873047:0.236816:1:1.5:0.1875
1562063771543251:0:0:2:11:-2:1:-8:-5:-0.458496:-0.874023:0.236816:-1.0625:1.1875:0.0625
1562063771602257:0:0:-1:15:-1:-1:-3:-19:-0.463379:-0.884277:0.223633:-1.75:0.4375:0.1875
1562063771645261:-1:2:-4:-15:-1:1:1:4:-0.462402:-0.873535:0.238281:0.625:0.625:-0.3125
1562063771697266:-3:-1:3:32:4:2:-4:-13:-0.463867:-0.872559:0.23877:0:-0.1875:-0.1875
1562063771741270:-1:-2:-3:-8:-3:-3:0:0:-0.465332:-0.880371:0.232422:0:0.375:0.375
1562063771801276:0:-1:-1:-4:-2:0:0:-4:-0.461426:-0.884766:0.231445:-1:0.1875:0.625
1562063771842281:-1:2:-1:-19:-1:0:-4:-3:-0.467285:-0.876465:0.23291:1:0.25:0.8125
1562063771902287:-1:-1:-1:-11:-1:-2:-3:-4:-0.466797:-0.871094:0.233398:-1.25:0.1875:0.25
1562063771945291:-1:-4:1:14:1:1:-4:-2:-0.46582:-0.871582:0.235352:1.625:0.625:0.5
1562063772006297:-1:-2:-2:19:-1:-3:-1:4:-0.465332:-0.873535:0.236328:-0.25:-0.375:-0.0625
1562063772042301:1:0:-4:-8:-2:-2:-9:-5:-0.466309:-0.874023:0.239258:0.5625:0.125:0
1562063772102307:1:1:-1:-7:2:-1:5:0:-0.462891:-0.880859:0.232422:-1.375:0.0625:0.125
1562063772147311:-3:0:-3:-7:1:-1:0:-2:-0.475098:-0.866699:0.238281:-0.25:-0.3125:0.125
1562063772207317:-2:-1:-3:-8:-2:0:-2:-1:-0.47168:-0.877441:0.233887:-0.75:0:0.0625
1562063772259322:0:-1:1:-4:-2:-1:-1:-5:-0.466309:-0.876465:0.230957:-1.25:-0.375:0.1875
1562063772304327:2:0:3:3:-1:1:3:-1:-0.466309:-0.873047:0.236816:0.5:0.25:0
1562063772360332:1:1:1:-13:1:2:-1:-7:-0.470703:-0.876465:0.228516:-2.0625:-0.9375:-0.25
1562063772405337:-2:1:-2:2:-4:-1:-2:5:-0.466797:-0.871582:0.23584:0.875:0.125:-0.0625
1562063772446341:-1:1:-1:0:-1:1:-6:-1:-0.462891:-0.876465:0.237305:-1.125:-0.6875:-0.0625
1562063772507347:-1:-2:-3:11:2:0:0:11:-0.469727:-0.871582:0.23877:0.625:0:0
1562063772559352:0:-1:-3:-1:3:-1:0:3:-0.46875:-0.867188:0.240234:0.75:0.375:-0.0625
1562063772604357:1:-1:0:-17:-2:-2:-3:-11:-0.472168:-0.870117:0.23877:-0.875:-0.375:-0.3125
1562063772659362:1:0:4:-1:-6:-1:-1:8:-0.470215:-0.877441:0.237305:-0.4375:-0.1875:-0.0625
1562063772705367:-1:0:-2:0:1:1:5:3:-0.467285:-0.871094:0.239258:-0.5625:-0.3125:0.125
1562063772763373:0:1:0:9:5:1:0:5:-0.47168:-0.869141:0.236328:-0.0625:-0.1875:-0.0625
1562063772807377:1:0:2:3:6:2:5:5:-0.46875:-0.87793:0.230957:-0.5:0.3125:-0.125
1562063772859382:-1:-3:0:3:0:1:0:-6:-0.469238:-0.870605:0.23584:-0.5625:-0.1875:0.3125
1562063772904387:-1:1:-1:-9:-2:0:2:0:-0.471191:-0.873047:0.237793:0.375:0.5625:-0.4375
1562063772964393:-4:-2:-4:-30:-5:-2:1:-21:-0.46875:-0.871582:0.236328:-0.125:-0.625:-0.0625
1562063773010397:-1:0:1:-3:-3:1:5:1:-0.469238:-0.874512:0.244141:-0.375:-0.375:0.125
1562063773062403:0:0:2:1:5:4:3:2:-0.464844:-0.871582:0.237305:-0.625:0.0625:-0.375
1562063773106407:0:-1:0:5:1:-5:-8:-3:-0.471191:-0.875:0.23584:-0.5625:-0.5:-0.25
1562063773159412:0:1:-1:-1:-2:0:4:-7:-0.467285:-0.870605:0.239258:0.0625:0.375:-0.0625
1562063773207417:-2:1:-1:-10:-3:-2:-3:0:-0.465332:-0.87207:0.234863:0.25:0.3125:-0.0625
1562063773264423:-2:-1:-2:7:-3:-4:-1:0:-0.472168:-0.875:0.241211:-1.375:0.25:-0.1875
1562063773309427:2:-1:2:-7:0:2:6:9:-0.472168:-0.875977:0.23291:0.125:0:0.25
1562063773362433:-2:-4:-6:-18:1:0:-2:1:-0.470215:-0.869629:0.240234:-0.375:-0.3125:-0.125
1562063773406437:0:0:0:-1:1:0:-6:-1:-0.472168:-0.870605:0.237305:0.5:0.875:0.0625
1562063773460442:-1:-3:-3:-18:-11:-5:-4:-4:-0.467773:-0.876953:0.23584:0.1875:0.1875:-0.0625
1562063773507447:-1:0:1:-4:-8:-1:-3:0:-0.470215:-0.870117:0.23877:-0.125:0.6875:-0.3125
1562063773565453:0:0:-1:-4:1:4:7:0:-0.470703:-0.881836:0.236328:-0.375:-0.1875:0.1875
1562063773609457:1:3:7:4:7:7:0:-4:-0.473145:-0.875488:0.227539:-0.5:-3.25:1.3125
1562063773662463:1:-1:-3:26:9:9:4:2:-0.479492:-0.882812:0.23291:2.75:-9.6875:3.25
1562063773707467:-3:-6:-15:-57:-16:-10:0:2:-0.518555:-0.894043:0.187012:10.4375:-29.125:2
1562063773767473:4:0:19:-45:-15:4:-1:-2:-0.480957:-0.868164:0.255859:19.125:-36.5:2.4375
1562063773808477:-22:-14:60:99:74:-29:-20:-14:-0.413574:-0.867676:0.290039:-1.1875:-48.5:1.0625
1562063773867483:-6:-10:-21:46:-28:-11:-9:-9:-0.314453:-0.873535:0.405762:0.5:-35.875:-10.0625
1562063773909487:14:1:-16:-95:-75:-12:0:1:-0.48291:-0.787598:0.295898:-44.9375:-9.5625:-3.8125
1562063773969493:-12:-20:9:51:-54:-13:-17:-13:-0.432129:-0.964844:0.279297:-76.5:-12.375:-6.75
1562063774012498:-21:-16:-7:-42:32:-4:-16:-14:-0.396484:-0.89502:0.263184:-16.25:-1.875:-8.625
1562063774070503:-8:3:-28:57:95:-15:-2:-2:-0.358887:-0.912109:0.20166:-16.3125:2.625:-5.1875
1562063774111507:4:1:-16:-82:-79:-6:11:2:-0.420898:-0.882324:0.250488:4.25:3:-3.125
1562063774171513:-16:-25:-29:-25:-49:-35:-22:-15:-0.386719:-0.946777:0.236328:-1.8125:1.75:-1.25
1562063774209517:1:-5:5:22:4:19:7:3:-0.396484:-0.911133:0.233398:0.75:1.6875:-1
1562063774269523:16:-5:-13:93:45:-12:1:0:-0.394043:-0.914551:0.234863:2.625:3.0625:0.0625
1562063774321528:-4:-4:-4:-40:-1:-10:-4:-1:-0.398438:-0.899902:0.253906:13.4375:5.6875:4.5
1562063774370533:-4:-4:-5:-21:-27:-3:-5:-2:-0.402344:-0.905762:0.246094:18.4375:8.25:5.625
1562063774412538:-17:-1:4:-28:-3:-2:-12:18:-0.379395:-0.882812:0.320312:31.3125:16.875:3.375
1562063774472544:0:-3:4:65:0:-2:17:9:-0.443359:-0.887207:0.271973:43.8125:13.625:4.625
1562063774524549:1:-3:-4:-88:-6:-3:-10:3:-0.401367:-0.886719:0.27832:7.9375:20.4375:2.5
1562063774569553:3:1:-1:8:0:0:-11:4:-0.479004:-0.883301:0.248047:1.1875:15.4375:7
1562063774622559:-4:-4:-5:-51:3:-5:-6:-8:-0.416992:-0.84668:0.287109:-2.375:8.375:6
1562063774670563:-2:1:4:19:3:1:0:-6:-0.46582:-0.845703:0.260254:-6.9375:5.125:0.625
1562063774711567:-1:-1:-3:-28:-10:-1:-8:-8:-0.454102:-0.866699:0.274902:-6.25:4.9375:-2.375
1562063774771573:-2:-2:-3:5:6:-1:1:3:-0.458496:-0.891602:0.279297:2.1875:6.25:-3.0625
1562063774825579:-1:0:0:-4:4:2:0:-10:-0.451172:-0.876953:0.272461:-5:4.125:-0.1875
1562063774870583:-4:-2:-3:13:6:0:7:7:-0.463867:-0.865234:0.258789:1.3125:2.9375:2.9375
1562063774922589:1:-1:5:-2:2:-5:-7:3:-0.460938:-0.882324:0.259766:-7.4375:3.75:2.625
1562063774975594:0:1:1:-3:-2:-1:0:6:-0.457031:-0.867188:0.251465:1.125:2.125:1.75
1562063775027599:1:-1:-3:2:-5:-4:0:2:-0.464355:-0.869629:0.265625:-3.75:1.1875:0.5
1562063775071603:-2:0:-5:0:6:-1:-3:-9:-0.461914:-0.879883:0.247559:0.5:-0.125:0.4375
1562063775124609:0:-2:0:-4:-3:0:4:2:-0.45166:-0.874512:0.262207:-1.25:1.75:-0.5625
1562063775174614:2:-1:-1:1:0:-1:-3:1:-0.469238:-0.877441:0.255859:-3.625:1:-0.5
1562063775215618:-3:-2:-2:13:-7:-3:1:1:-0.467773:-0.874512:0.251465:2.625:-1.6875:0.9375
1562063775275624:-2:-1:1:-3:1:-1:-5:0:-0.456055:-0.875:0.261719:-1.25:1.4375:-0.5
1562063775326629:0:-2:-5:33:10:0:9:7:-0.461426:-0.86377:0.253418:0.75:0.8125:0
1562063775372634:-2:-3:2:8:-3:-5:-2:-4:-0.462891:-0.870117:0.260254:1.75:1.3125:-0.0625
1562063775432640:-1:0:-2:-3:4:4:0:5:-0.459473:-0.875488:0.258301:-2.3125:-0.9375:1.125
1562063775472644:0:1:-2:-16:-5:0:-4:-14:-0.467773:-0.867188:0.259766:-0.125:-1:0.875
1562063775532650:0:0:0:-11:-4:-1:-3:-2:-0.464355:-0.867676:0.259766:-0.8125:0.875:0
1562063775575654:-2:-2:-5:22:6:0:1:-2:-0.468262:-0.868652:0.254395:-1.375:0.375:-0.125
1562063775627659:-2:1:1:2:-5:0:3:0:-0.463867:-0.872559:0.26123:0.8125:0.5:-0.25
1562063775672664:1:-1:1:-6:-3:0:2:1:-0.464355:-0.868652:0.25:-2.5625:-1.625:0.625
1562063775731669:-1:-1:0:-3:-4:-4:-5:-4:-0.464844:-0.868164:0.265137:-0.375:0.8125:-0.0625
1562063775777674:-1:0:2:11:6:0:2:-1:-0.466309:-0.87207:0.253906:-2.125:-0.4375:0.625
1562063775829679:2:0:3:-6:0:1:1:-1:-0.458008:-0.876465:0.262207:-0.875:0.1875:-0.1875
1562063775875684:-3:-3:-6:-8:-14:-6:-8:-28:-0.467285:-0.854492:0.255371:-0.5:0.0625:-0.625
