1562063213650465:-4:-4:-13:2:4:-2:-46:-2:-0.197754:-0.982422:0.228516:10.625:1.625:4.4375
1562063213688469:26:13:29:21:-3:-14:-86:26:-0.150879:-1.06104:0.234863:11.125:6.6875:3.75
1562063213747475:6:-2:56:62:23:-5:-25:-4:-0.178711:-0.954102:0.233887:10.6875:1:6.3125
1562063213801480:3:0:-3:-41:-7:1:-1:9:-0.168457:-0.930664:0.26123:10.625:-4.75:-4.125
1562063213848485:-2:1:-3:-24:14:12:-2:1:-0.252441:-0.864258:0.280273:-57.625:-25.9375:-16.5625
1562063213898490:-2:-1:-2:23:7:2:-7:7:-0.0859375:-1.17822:0.223633:-51.3125:-4.8125:-12.25
1562063213949495:1:3:1:-11:-28:1:1:1:-0.147949:-0.909668:0.179199:-16.5:4.1875:-3.6875
1562063214005501:1:1:5:-3:14:-3:-2:4:-0.192871:-1.01221:0.178223:-19.8125:3.1875:0.875
1562063214047505:-1:0:-2:-23:-30:-1:0:-2:-0.184082:-0.998047:0.188477:-0.75:-0.75:0.5
1562063214100510:-2:-1:-4:-17:-3:-6:-1:-2:-0.120605:-0.999023:0.178711:0.9375:-1.4375:-0.5
1562063214148515:-1:-1:-5:-13:6:4:2:0:-0.134766:-1.00928:0.190918:0.5:0.5:-2.25
1562063214206521:-3:-1:-1:12:0:-1:-1:1:-0.158203:-1.00635:0.196777:3.5625:1.375:-3.5
1562063214250525:0:-2:-1:6:6:-8:-4:-1:-0.17041:-0.977539:0.177734:0.6875:-2.0625:-2.6875
1562063214304531:-3:-1:-3:-17:6:-7:0:0:-0.150391:-0.980469:0.17627:3.3125:-0.8125:-0.1875
1562063214348535:0:-2:-1:-4:0:-3:-2:0:-0.153809:-0.978516:0.202637:2.25:-0.1875:0.625
1562063214407541:0:1:0:24:27:5:-1:-4:-0.154297:-1.00977:0.215332:-1.6875:-0.9375:3.625
1562063214452545:-1:-3:-6:-8:-2:-3:0:1:-0.15918:-0.983398:0.205078:1.875:-3.6875:2.0625
1562063214506551:-4:-2:-4:-2:9:-6:-6:-21:-0.149414:-0.99707:0.172363:2.4375:-4.5:2.4375
1562063214550555:0:2:3:16:-34:1:2:-9:-0.152344:-0.973145:0.179688:-1.6875:-5.75:4.1875
1562063214610561:0:-1:5:-3:20:2:-13:-6:-0.146484:-1.0249:0.177246:-22.625:-4.3125:14.375
1562063214650565:0:-1:-1:-10:9:-1:15:16:-0.194824:-0.963867:0.178711:-27.375:-7.5625:21.6875
1562063214700570:2:-4:-6:16:21:6:7:10:-0.224121:-1.0166:0.134277:-36.75:-12.5:29.6875
1562063214760576:2:0:4:-3:-6:0:1:-10:-0.242676:-0.999512:0.126953:-15.375:-11:22.1875
1562063214813581:-2:0:6:0:-2:0:-6:-2:-0.241699:-0.952148:0.0932617:5.8125:-10.4375:8.5
1562063214850585:-1:1:4:8:-4:-7:-18:-9:-0.259766:-0.90918:0.0961914:0.3125:-7.875:0.8125
1562063214911591:0:-1:-1:1:-1:-7:-14:1:-0.169922:-1.00635:0.100098:3.3125:-2.4375:-9.625
1562063214963596:-1:0:-1:-6:-2:-2:-6:7:-0.192871:-0.977051:0.0869141:9.1875:1.25:-4.4375
1562063215011601:-4:-2:-1:-15:-3:0:-5:-10:-0.21875:-1.01367:0.0820312:-4.9375:0.5625:-0.75
1562063215060606:-1:-2:-3:-3:3:-1:-3:-10:-0.218262:-0.990723:0.10791:1.8125:2.8125:0.125
1562063215113611:1:0:-3:-2:-5:-2:-1:-8:-0.21875:-0.990234:0.131348:-1.5:1:-0.3125
1562063215166617:-2:-1:0:-7:0:1:-2:0:-0.224609:-0.98584:0.133789:-0.625:-0.0625:-1.3125
1562063215210621:1:-1:-3:9:-6:-3:2:7:-0.229492:-0.982422:0.117188:-0.5:0.25:1.3125
1562063215263626:0:0:3:5:1:-3:-7:-16:-0.229492:-0.990234:0.118164:-1.125:0.875:3
1562063215314632:0:-3:-3:3:9:-1:0:7:-0.221191:-0.98291:0.125:0.625:0.625:3.3125
1562063215353635:1:1:2:-3:-5:-3:-3:13:-0.225586:-0.973633:0.116699:0.375:0.5:2.625
1562063215413641:-1:-2:-1:-8:5:3:1:-8:-0.228027:-0.995117:0.120605:1.375:-0.875:0.375
1562063215466647:0:1:0:3:13:3:5:6:-0.223633:-0.991211:0.125488:-0.5625:-1.9375:-1
1562063215510651:1:-3:1:3:9:5:0:2:-0.231445:-1.00879:0.121582:-0.9375:-3:-0.625
1562063215570657:-1:-1:0:14:-1:-6:-5:0:-0.225586:-0.973145:0.119141:0.5:-3.375:0.8125
1562063215614662:-3:0:1:1:10:-5:-5:-9:-0.231445:-0.985352:0.105957:0.5625:-1.5:1.9375
1562063215669667:1:2:3:6:-4:2:6:-2:-0.227539:-0.972656:0.112305:1.5:-1.875:2.5625
1562063215712671:-1:-1:1:3:-17:-10:-1:10:-0.225098:-0.987793:0.109375:-1.75:-0.75:2.6875
1562063215773677:-2:-1:-1:-5:-3:-2:-2:5:-0.229492:-0.974121:0.116699:1.4375:-0.875:2
1562063215812681:1:-1:-1:-15:-3:-3:6:2:-0.228516:-0.987305:0.126465:-1.75:-1.25:1
1562063215862686:0:0:2:-3:-9:-2:17:9:-0.233398:-0.992188:0.120117:0.0625:-1.3125:0.375
1562063215922692:0:1:-1:8:-8:-5:4:13:-0.241211:-0.97998:0.132324:0.6875:-1.5625:0.0625
1562063215969697:-2:0:2:8:-10:-3:-12:-14:-0.231934:-0.972168:0.120117:1.25:-1.75:0.4375
1562063216013701:0:-2:-1:-6:11:-2:-12:0:-0.242188:-0.98291:0.114746:-1.4375:-1.0625:-0.125
1562063216072707:0:-1:-5:-4:-6:-3:-9:-29:-0.236816:-0.977539:0.124023:-1.6875:-1.0625:0.4375
1562063216116712:-1:-1:-2:1:2:-1:4:8:-0.23584:-0.988281:0.116211:-2.1875:-0.9375:1.5
1562063216171717:2:4:5:1:-5:-3:2:-2:-0.241211:-0.978027:0.122559:-0.1875:-0.875:1.3125
1562063216216722:-4:-4:-3:18:10:0:6:5:-0.233887:-0.970215:0.115234:-3.3125:-0.8125:1
1562063216274728:0:-2:2:-6:4:-3:-2:-4:-0.236328:-0.983887:0.115723:-0.9375:-0.25:0.625
1562063216312731:-1:0:0:-12:-1:-7:-4:-3:-0.235352:-0.98291:0.115234:-0.5:0.125:0.875
1562063216372737:0:-1:0:-4:-7:2:0:-1:-0.23584:-0.98584:0.112793:-1.5:0.875:0.875
1562063216427743:-2:-1:-1:15:-10:0:0:-8:-0.243164:-0.983887:0.12207:4.6875:1.5:0.625
1562063216476748:0:1:0:-7:-2:-2:2:6:-0.239746:-0.978027:0.124512:-0.0625:1.5:0.75
1562063216515752:1:-4:-3:-3:-9:-2:-3:-8:-0.24707:-0.983887:0.117188:0.9375:0.75:1
1562063216575758:0:-3:-2:-7:-8:-3:-7:0:-0.24707:-0.977051:0.119141:-0.6875:0.375:0.4375
1562063216629763:-1:-1:-6:-20:-2:-1:6:2:-0.250488:-0.980957:0.116699:0.375:-0.5625:-0.6875
1562063216676768:-3:-3:-1:4:13:0:0:-6:-0.243652:-0.980957:0.124512:-2.3125:-2.5625:-0.4375
1562063216726773:-2:0:1:-22:-2:0:11:-3:-0.244141:-0.979492:0.117188:0.25:-2:0.625
1562063216777778:-1:-2:-3:6:13:1:6:25:-0.240234:-0.986816:0.119629:-0.3125:0.5625:0.875
1562063216833783:0:-1:-1:-6:2:-3:0:-11:-0.243652:-0.987305:0.117676:-1.875:0.1875:1.6875
1562063216875788:1:-1:-3:4:8:-2:-1:1:-0.244629:-0.978027:0.114746:0.8125:-0.25:1
1562063216931793:-1:-1:-4:14:1:4:3:5:-0.237793:-0.981934:0.12207:-0.5625:-1.0625:1.0625
1562063216975798:-1:-1:-2:-15:-3:-4:-6:-4:-0.23877:-0.981445:0.118652:-0.0625:-0.5625:0.75
1562063217017802:1:0:0:-1:7:3:-1:2:-0.241211:-0.983887:0.117676:-2.125:-1.375:0.6875
1562063217078808:-2:1:2:6:-6:1:4:36:-0.246582:-0.990234:0.126953:0.9375:-0.75:0.5625
1562063217130813:0:-2:0:24:0:-7:-2:-9:-0.234863:-0.979004:0.112305:0.1875:-0.875:-0.125
1562063217175818:-1:0:1:-6:2:0:2:-28:-0.245117:-0.976074:0.117676:0.5625:0.0625:-0.5
1562063217230823:-2:0:-2:10:0:1:1:-9:-0.244629:-0.980469:0.117676:0:0.1875:-0.875
1562063217277828:0:-1:-3:-1:-6:-1:-2:9:-0.243164:-0.98291:0.116699:-0.125:0.1875:-0.5625
1562063217335834:1:0:1:1:9:1:-6:-1:-0.25:-0.987793:0.112305:-1.4375:0.3125:-0.125
1562063217377838:-1:-1:-2:-2:3:-1:0:-2:-0.248047:-0.983887:0.133301:-1.5625:-0.5:-0.5
1562063217430843:-1:0:-2:13:-6:0:-1:-2:-0.241699:-0.989746:0.121094:-0.3125:-0.1875:0.1875
1562063217476848:-4:0:0:4:8:-3:1:-27:-0.250977:-0.984375:0.121582:-0.625:-0.625:0.875
1562063217534854:0:-2:-5:-41:-3:1:-1:1:-0.246094:-0.98291:0.120605:0.75:0.125:0.75
1562063217576858:-2:-1:1:9:-2:-5:1:-3:-0.24707:-0.97168:0.111816:0.3125:-0.125:0.75
1562063217636864:2:-2:-6:1:-2:-4:-11:-3:-0.241699:-0.987305:0.118164:-0.0625:-0.375:-0.1875
1562063217677868:0:-2:-3:-1:0:-3:-1:11:-0.243652:-0.978516:0.117676:-0.9375:-0.4375:0
1562063217737874:-4:0:-2:-7:-7:1:0:7:-0.25:-0.981445:0.119629:-2.875:0.125:0
1562063217775878:0:-1:1:10:-11:6:11:3:-0.250488:-0.986328:0.128418:-0.8125:0.1875:0.875
1562063217835884:1:2:4:-6:5:4:-3:0:-0.253418:-0.976562:0.11377:-0.8125:0.4375:0.75
1562063217891889:2:1:1:1:3:0:3:-3:-0.242188:-0.992676:0.122559:-1.25:0.1875:0.9375
1562063217940894:-3:-1:1:2:5:0:2:4:-0.246582:-0.979004:0.121094:-0.9375:-0.8125:0.375
1562063217977898:1:-1:-1:17:10:7:-1:4:-0.249023:-0.990723:0.116699:-0.125:-0.5:0.0625
1562063218037904:-2:-2:-9:-15:-11:-5:-3:-4:-0.244141:-0.975586:0.117676:-0.1875:-0.6875:0.5625
1562063218090909:-3:-2:1:-2:9:0:-2:-1:-0.250977:-0.974121:0.112305:-0.5:-1:0.8125
1562063218138914:1:-4:-6:-6:-14:-7:14:2:-0.25293:-0.990723:0.110352:-0.75:-0.375:0.3125
1562063218180918:1:-1:3:-7:-4:-1:-4:-7:-0.248535:-0.983398:0.116699:-2.0625:-1.25:0.4375
1562063218240924:0:0:-4:-10:-5:0:-5:0:-0.250488:-0.987793:0.120605:0.5:-1.1875:1.1875
1562063218292929:-1:-3:1:12:5:-4:-5:-10:-0.256836:-0.979004:0.119629:-0.1875:-1.5625:1.9375
1562063218337934:-1:-2:-3:0:-2:-1:3:2:-0.246094:-0.977539:0.118652:1.5:-0.375:1.75
1562063218393939:-3:-6:-11:-6:0:-1:-2:-6:-0.251465:-0.974609:0.112793:0.4375:-1.0625:1
1562063218438944:-2:1:4:-1:-2:0:-8:0:-0.250488:-0.978516:0.116211:0.375:-1:1
1562063218479948:2:0:1:1:2:3:-3:-2:-0.249512:-0.976074:0.118164:-0.8125:-0.75:0.125
1562063218540954:0:0:1:7:-18:-2:-1:6:-0.254395:-0.980957:0.12207:-0.5:-0.5:-0.0625
1562063218592959:0:-2:-3:-8:10:4:1:4:-0.258789:-0.975586:0.119141:-0.1875:-0.3125:0.25
1562063218637964:-1:-1:1:5:-3:-1:-9:-36:-0.256836:-0.985352:0.123047:1.0625:0.1875:0.625
1562063218693969:5:1:-2:-10:14:3:17:4:-0.249512:-0.980469:0.121094:-0.375:-0.125:0.875
1562063218738974:47:7:7:10:5:6:26:-3:-0.255859:-0.987793:0.117188:-0.375:0:1.6875
1562063218795980:-67:19:11:3:5:-4:-122:-38:-0.141602:-0.941895:0.214844:-20:24.75:21.6875
1562063218839984:39:20:14:19:16:28:115:1:-0.385742:-0.989258:0.102051:-37:49.4375:21.4375
1562063218892989:-10:24:-1:8:11:20:87:48:-0.339355:-0.896973:-0.0761719:-44.0625:-8.4375:12.8125
1562063218941994:55:72:9:-5:-8:-14:-73:53:-0.127441:-1.06104:-0.0180664:-16.875:-33.625:6.625
1562063218982998:-8:29:-9:-6:4:6:23:7:-0.318848:-0.834473:0.0380859:31.1875:-14:5.3125
1562063219043004:24:-14:-5:9:1:-12:-41:28:-0.312012:-1.06787:0.059082:-26.8125:4.1875:2.8125
1562063219095010:3:-11:0:-38:-4:-3:-6:19:-0.29541:-0.899902:0.0229492:-14.6875:8.375:-9.5625
1562063219141014:4:-4:-4:-28:-55:1:-14:-3:-0.274902:-1.04736:-0.0341797:-28.125:13.125:-0.4375
1562063219194019:1:-4:-1:-35:28:-2:-3:6:-0.313965:-1.1084:-0.134766:10.3125:-0.75:10.9375
1562063219241024:0:2:6:62:5:0:15:7:-0.468262:-0.92627:-0.00488281:64.1875:-31.75:1.875
1562063219300030:-5:-8:-16:38:-3:-2:-7:-6:-0.240234:-0.745605:0.138184:45.625:-3.6875:-21.1875
1562063219343034:-1:-2:-7:-24:-7:-5:-15:-8:-0.194824:-1.13135:0.132812:1.6875:12.0625:-11.5625
1562063219395040:-1:-1:2:39:6:5:4:1:-0.29541:-0.980469:0.0546875:-25.3125:-7.5:-5.3125
1562063219440044:0:2:-4:-33:-5:-2:4:-7:-0.291504:-0.961426:0.0522461:8.1875:-5.3125:-4.4375
1562063219493049:-5:-3:8:-21:1:-2:0:-15:-0.290039:-0.95166:0.0678711:-3.5625:-6.5625:-3.625
1562063219541054:0:-1:-3:11:6:6:5:-4:-0.302246:-0.974609:0.0776367:0.375:0.375:-1
1562063219601060:0:0:-1:-1:-2:-3:-11:-4:-0.308594:-0.966309:0.0922852:-1.625:4.25:-0.9375
1562063219643064:2:3:1:4:6:5:3:-8:-0.291992:-0.995605:0.0708008:-2.375:0.5:0.1875
1562063219695070:-3:-6:0:-4:0:0:-17:-33:-0.297852:-0.970215:0.0546875:1.5:0.5625:-0.5
1562063219741074:-1:-2:-2:4:1:-1:1:-6:-0.291016:-0.976074:0.0605469:-0.75:1.25:-0.25
1562063219801080:-1:3:0:4:9:3:-3:-5:-0.282227:-0.99707:0.0673828:-6:-0.9375:0.25
1562063219847085:1:2:4:0:-3:-2:4:15:-0.286133:-1.00879:0.074707:-6.5625:-1.5625:-2.125
1562063219898090:-4:-1:2:37:-15:-9:4:-1:-0.282715:-0.996094:0.0913086:-0.3125:-2.6875:-1.6875
1562063219943094:0:3:3:3:-8:-2:3:0:-0.275879:-0.94873:0.0561523:2.4375:-2.625:-0.25
1562063220004100:-2:0:4:20:-7:-3:0:-4:-0.268066:-0.961426:0.0424805:3.75:-0.5:-1.5625
1562063220044104:1:4:1:-8:2:-1:-3:-10:-0.27832:-0.989258:0.0439453:-0.9375:0.1875:-3.125
1562063220104110:-4:-1:4:-7:-5:-2:25:-10:-0.278809:-0.973145:0.050293:-0.6875:-0.625:-1
1562063220147115:-1:-1:-3:-24:-8:-1:-3:-2:-0.287109:-0.980957:0.0673828:-1.4375:-1:2.125
1562063220207121:0:0:-4:5:7:1:-12:2:-0.28125:-0.976074:0.0712891:-1.8125:0.6875:3.25
1562063220258126:1:-2:-1:-7:5:2:-4:5:-0.274414:-0.995117:0.0708008:-0.9375:1.25:3.25
1562063220303130:-1:-1:-3:-16:-8:3:-3:5:-0.281738:-0.967773:0.0722656:2.8125:1.9375:2.9375
1562063220356136:0:-1:-4:-8:-11:-4:-3:1:-0.288574:-0.97168:0.0693359:1.0625:0.8125:2.3125
1562063220403140:0:1:3:6:10:4:-1:-1:-0.312012:-0.974609:0.0722656:2:1:0.4375
1562063220446145:-1:0:-1:5:-21:0:30:2:-0.305176:-0.975098:0.0581055:-0.75:-0.5625:-0.4375
1562063220506151:0:2:0:-4:0:0:-2:-3:-0.319824:-0.976562:0.0644531:2.125:0.3125:-0.5
1562063220558156:-1:0:-2:-4:1:1:-1:-6:-0.289551:-0.967773:0.0449219:-1.0625:-0.125:0.1875
1562063220603160:-2:0:0:14:3:-7:-12:-13:-0.293457:-0.977539:0.0498047:0.3125:-0.25:-0.5
1562063220656166:0:-4:-4:-13:-3:3:5:-6:-0.28125:-0.984863:0.0639648:0.5:-1.375:-1.0625
1562063220708171:-1:0:2:4:-2:-4:-1:2:-0.287598:-0.97998:0.0727539:-0.1875:-1.25:-0.9375
1562063220745175:3:2:2:-2:-7:-2:-1:11:-0.294434:-0.975586:0.0727539:1.9375:-0.375:-0.3125
1562063220805181:-1:-2:2:6:1:2:3:-4:-0.289551:-0.969238:0.0625:0.375:0.4375:-0.6875
1562063220859186:-1:-2:-2:3:3:-2:-5:3:-0.284668:-0.976074:0.059082:-0.25:0.3125:-0.0625
1562063220906191:-1:-2:1:2:-4:-4:2:6:-0.279297:-0.97168:0.0683594:1.25:-0.0625:0.6875
1562063220949195:0:1:0:-7:1:-4:-12:11:-0.289062:-0.976074:0.0688477:-0.0625:-0.375:0.1875
1562063221009201:-4:-4:-2:9:-4:-5:-9:-18:-0.295898:-0.971191:0.0698242:1.25:-0.0625:-0.0625
1562063221060206:-3:0:8:16:-1:0:-4:5:-0.294434:-0.981445:0.0751953:-0.125:0.4375:0.875
1562063221098210:-1:0:5:-3:-8:-1:-1:3:-0.295898:-0.981445:0.0664062:1.4375:0.6875:1.25
1562063221158216:1:0:-3:-11:-9:-2:1:0:-0.29248:-0.976562:0.0756836:0:0.375:1.0625
1562063221206221:-2:-1:0:5:2:1:1:7:-0.291016:-0.966309:0.0786133:0.75:-0.3125:-0.75
1562063221249225:0:0:1:-3:-8:0:1:7:-0.307129:-0.984863:0.0859375:-1:-2.25:-2.9375
1562063221308231:-2:-1:1:12:6:-3:0:10:-0.292969:-0.98291:0.0834961:2.1875:-3.4375:-4.25
1562063221360236:0:-2:3:1:-3:-3:-4:2:-0.274902:-0.978516:0.0688477:3.3125:-2.375:-2.125
1562063221406241:1:1:0:-7:-2:1:2:3:-0.276367:-0.977051:0.0644531:1.0625:1:0.625
1562063221465247:0:1:0:2:2:-4:-4:-1:-0.275879:-0.975098:0.059082:0.5625:1.4375:1.75
1562063221506251:-2:-2:-1:6:2:1:-2:-21:-0.272461:-0.96875:0.0698242:-1.375:1.125:1.625
1562063221566257:-1:1:2:0:3:0:0:8:-0.268555:-0.97168:0.0644531:-2.5:0.1875:1.0625
1562063221610261:-1:-2:-1:-6:2:0:2:2:-0.278809:-0.968262:0.0649414:-3.25:0.625:-0.4375
1562063221668267:-1:-4:0:2:-5:-2:0:1:-0.28125:-0.977539:0.0693359:-3.5:1:-1.75
1562063221705271:-1:2:2:5:-4:-4:-6:4:-0.275879:-0.98584:0.0634766:-1:1.3125:-2.1875
1562063221769277:0:0:-1:-3:-6:0:2:9:-0.274902:-0.983398:0.059082:-2.125:1.0625:-1.75
1562063221811281:-3:-5:-13:-8:0:-2:-2:-14:-0.276367:-0.984863:0.0625:0.25:0.75:0.5625
1562063221863286:0:-1:1:-1:-2:0:-1:-3:-0.270508:-0.967285:0.0727539:-0.375:0.5625:1.9375
1562063221909291:-2:1:4:4:-6:-3:2:2:-0.281738:-0.969238:0.0639648:2.75:1.5:2.5625
1562063221969297:0:-2:0:3:-1:2:8:23:-0.28125:-0.969727:0.065918:-1.4375:1.125:2.0625
1562063222008301:0:1:6:2:2:1:1:6:-0.274902:-0.979492:0.0576172:1.0625:1.4375:2.8125
1562063222069307:-1:-1:0:-6:-6:-1:-3:-9:-0.289062:-0.980957:0.0605469:0.4375:1.5:3
1562063222112311:-2:-1:0:4:3:-2:0:-26:-0.297363:-0.984375:0.0712891:1.125:1.5625:3.3125
1562063222163316:1:0:4:-2:0:-3:-4:4:-0.29834:-0.980469:0.0756836:0.9375:1.25:3.0625
1562063222209321:2:-2:-4:-10:2:-1:11:15:-0.29541:-0.963379:0.0688477:1.75:0.9375:3.125
1562063222269327:0:-2:-3:2:0:-2:3:15:-0.291992:-0.963867:0.0571289:1.125:1.6875:3.4375
1562063222321332:-1:1:-1:-2:11:3:0:1:-0.29834:-0.95752:0.0576172:1.0625:2.5625:3.75
1562063222369337:-1:-6:0:20:5:-3:10:10:-0.303223:-0.960449:0.0683594:0.375:2.4375:4.6875
1562063222411341:-1:0:-3:-3:5:1:1:7:-0.305176:-0.963867:0.0722656:0:3.125:3.75
1562063222472347:1:0:1:-1:-3:-3:0:-1:-0.320801:-0.960449:0.0786133:-0.75:2:2.4375
1562063222523352:0:-2:-1:-10:-6:-3:-2:2:-0.339844:-0.976074:0.0844727:0.3125:0.4375:0.125
1562063222568357:0:1:2:-10:-1:-1:-6:-26:-0.344238:-0.97998:0.097168:0.6875:-0.6875:-0.125
1562063222621362:-2:0:-2:-3:-3:-3:-5:-5:-0.349609:-0.996582:0.09375:1.1875:0.375:-0.0625
1562063222666367:-2:-2:-4:-18:-2:0:2:-5:-0.347656:-0.990234:0.104004:2.875:0.25:1
1562063222711371:-1:0:1:-2:-4:-3:0:-1:-0.35498:-0.958984:0.102539:4.0625:0.5:4.875
1562063222763376:-2:0:2:7:-1:-2:-1:-10:-0.348145:-0.946777:0.0913086:4.1875:0.75:5.9375
1562063222823382:0:-1:0:-7:-9:-3:-3:6:-0.330566:-0.936523:0.0732422:1.25:0.5625:4.0625
1562063222871387:1:-1:1:1:2:-4:-4:2:-0.321289:-0.938965:0.0605469:1.9375:0.25:1.9375
1562063222913391:-1:0:0:-7:0:0:0:5:-0.326172:-0.958008:0.0791016:-1.75:-1.3125:-0.25
1562063222974397:-2:-3:-2:18:3:0:-1:-4:-0.339355:-0.962891:0.0898438:-0.3125:-1.8125:-1.0625
1562063223026403:-2:1:0:-1:4:-3:5:1:-0.34375:-0.966797:0.0898438:-1.375:-1.8125:-0.3125
1562063223071407:0:-3:-3:-9:-3:-4:-2:1:-0.345215:-0.965332:0.0942383:0.125:-0.8125:0.4375
1562063223131413:0:-2:0:3:-7:-2:-2:4:-0.330566:-0.959961:0.0771484:0.6875:-0.5:1.125
1562063223172417:-1:0:3:5:-1:1:3:1:-0.328125:-0.965332:0.081543:-0.625:-1:0.5625
1562063223229423:-1:1:-1:-3:-6:-5:-1:-2:-0.329102:-0.972168:0.0893555:0.5:-1.5625:1.1875
1562063223273427:-1:-3:-4:-7:2:1:1:-2:-0.330078:-0.961426:0.0761719:-2.75:-1.625:1.8125
1562063223325433:1:-1:0:-4:-6:-2:-2:3:-0.333008:-0.958984:0.0864258:1.0625:-1.4375:2.0625
1562063223371437:1:-1:-2:-4:-4:1:-3:3:-0.333984:-0.956543:0.0722656:1:-1:1.25
1562063223432443:-1:-1:1:13:2:2:-2:12:-0.334473:-0.958008:0.0908203:-0.4375:-0.8125:-0.4375
1562063223476448:-1:-2:-4:-3:-25:0:0:-1:-0.326172:-0.958008:0.0839844:0.375:-0.75:-0.6875
1562063223528453:-1:1:0:6:4:-4:0:3:-0.334473:-0.955078:0.0888672:-1.0625:-0.1875:-0.8125
1562063223576458:0:-3:-3:-3:6:0:15:24:-0.341309:-0.965332:0.0976562:0.9375:-0.1875:-0.625
1562063223625463:-38:-18:13:6:4:2:8:-62:-0.339844:-0.966797:0.103516:-1.9375:2.125:2.5
1562063223681468:53:-6:-18:-17:-2:5:42:-1:-0.330566:-0.938965:0.115234:-10.125:16.1875:11.75
1562063223732473:-24:-23:-15:1:-1:16:44:68:-0.394531:-0.93457:0.0947266:-21.1875:26.9375:7.6875
1562063223778478:-101:-71:-1:3:2:4:42:-41:-0.387207:-1.00342:-0.0664062:-27:-11.375:13.0625
1562063223828483:-5:18:-12:-6:2:14:68:-18:-0.197754:-1.05713:-0.0297852:-13.75:-41.75:4.75
1562063223876488:-47:13:5:0:1:-8:-70:1:-0.456055:-0.879883:0.0981445:-5.5625:-11.6875:10.125
1562063223936494:64:27:-9:-5:-1:-1:-28:-26:-0.414062:-0.917969:0.065918:-6.0625:5.875:8.625
1562063223985499:20:1:3:-1:0:0:-9:-17:-0.375:-0.90625:0.0195312:-10.6875:3.9375:-0.875
1562063224030503:5:-6:4:15:16:0:-3:-4:-0.364258:-0.969238:0.0209961:-11.5625:9.4375:-15.6875
1562063224079508:2:-3:-17:86:26:9:-2:1:-0.306152:-0.918945:-0.0454102:-25.75:14.3125:-2.4375
1562063224128513:-5:-6:-1:29:-58:-20:-7:-6:-0.439941:-0.99707:-0.0742188:30.25:-1.125:10.8125
1562063224188519:2:-2:-7:-34:-5:-4:8:-16:-0.508301:-0.907715:0.0283203:51.5625:-20.9375:7.8125
1562063224237524:1:2:8:31:0:2:15:-7:-0.299316:-0.878418:0.0966797:21.5625:6.25:-14.25
1562063224286529:-1:0:-5:-2:4:2:-1:-2:-0.307129:-0.992676:0.0932617:2.5:15.5625:-4.8125
1562063224330533:1:1:4:16:10:2:6:4:-0.341797:-0.97998:0.0546875:-18.625:4.9375:-2.625
1562063224390539:0:3:2:-5:-1:-1:3:-5:-0.350586:-0.995605:0.0556641:-1.75:-1.125:-0.25
1562063224439544:0:0:0:-12:2:1:7:0:-0.358398:-0.939941:0.0483398:-5.1875:-3.8125:0.0625
1562063224488549:0:-1:-3:0:-1:-1:-1:2:-0.329102:-0.971191:0.0473633:-1.8125:-0.1875:3
1562063224536554:0:-1:1:10:3:2:0:9:-0.36084:-0.925781:0.0556641:-1.5:7.75:4.25
1562063224585559:0:0:2:4:5:3:4:2:-0.388184:-0.95752:0.0766602:0.5:9.25:4.8125
1562063224641564:-3:-2:2:16:4:2:-2:3:-0.381836:-0.933105:0.0634766:0.9375:6.75:5.3125
1562063224691569:-1:1:1:4:-2:0:1:0:-0.373535:-0.938477:0.0288086:2.5:7.1875:8.375
1562063224738574:-1:-1:0:-9:-2:-3:7:7:-0.391113:-0.921387:0.0405273:-3.4375:8.25:9.4375
1562063224789579:-2:-2:-1:-1:-11:-3:-9:-7:-0.387695:-0.955566:0.046875:-7.75:9.6875:6.5
1562063224839584:-2:-2:-1:3:1:-2:-9:-16:-0.422852:-0.950195:0.0595703:-3.8125:6.625:4.9375
1562063224894589:0:2:1:-1:2:0:-1:-2:-0.425781:-0.946289:0.0556641:2.375:6.1875:4.875
1562063224941594:0:-1:-2:-15:-5:-4:-2:-7:-0.43457:-0.953613:0.0737305:-0.8125:1.625:4.6875
1562063224990599:-2:-2:-4:1:2:0:-2:0:-0.45459:-0.980957:0.0522461:10.4375:0.8125:0.375
1562063225038604:0:-1:2:-2:5:2:5:2:-0.41748:-0.948242:0.0078125:1.6875:2.6875:5
1562063225087609:0:-1:2:14:2:2:6:-2:-0.421875:-0.915039:0.0317383:6.0625:6.25:4.3125
1562063225139614:-2:-1:0:-3:-2:-4:-2:1:-0.412109:-0.940918:0.0615234:4.875:4.5:1.375
1562063225194619:1:5:2:-2:0:-2:0:3:-0.422363:-0.9375:0.0322266:8.125:3.25:1.75
1562063225230623:0:-2:0:-6:-4:-1:-1:1:-0.450195:-0.925781:0.0483398:9.9375:2.0625:4.125
1562063225291629:0:-4:-4:-4:-3:-2:-2:4:-0.438965:-0.929199:0.0239258:9.5:0.125:7.25
1562063225339634:0:-1:0:7:0:0:-6:-4:-0.459961:-0.923828:0.0615234:8.1875:-0.0625:9.6875
1562063225387639:0:1:1:-3:6:4:1:-1:-0.45459:-0.908691:0.0771484:9.4375:-2.625:11.625
1562063225440644:0:1:-2:-13:1:2:3:0:-0.459961:-0.881348:0.0927734:12:-2.8125:7.3125
1562063225493649:-2:-1:-1:-1:-2:-2:0:1:-0.449219:-0.896973:0.12207:8.75:-6.0625:4.625
1562063225541654:-1:-3:-1:-4:5:1:-2:-11:-0.458008:-0.908203:0.125:6.6875:-6.9375:3.25
1562063225590659:0:-1:-2:7:-2:-2:1:3:-0.436523:-0.938477:0.131348:9.8125:-6.6875:3.4375
1562063225641664:-2:1:1:21:-1:-3:-1:3:-0.44873:-0.893066:0.131836:5.5625:-1.3125:-0.4375
1562063225697670:1:1:4:-3:1:2:-1:1:-0.531738:-0.886719:0.14209:-1.0625:2.3125:-2.4375
1562063225740674:-5:-2:-1:7:0:-2:1:2:-0.529785:-0.880371:0.138184:-2.8125:-0.25:-1.0625
1562063225793679:2:0:2:-4:2:2:1:2:-0.489258:-0.881348:0.12207:-5.75:-0.3125:1
1562063225841684:0:0:-2:-16:-6:-1:-2:-1:-0.453613:-0.914062:0.0961914:-6.1875:-0.625:1.6875
1562063225901690:1:0:2:-7:2:-1:0:1:-0.412598:-0.90918:0.102051:-5.3125:1.375:2.25
1562063225941694:-1:-1:2:-3:3:0:0:2:-0.413086:-0.891113:0.10791:-3.0625:2.3125:1.3125
1562063225997700:-1:2:-1:0:1:4:4:-11:-0.445801:-0.902344:0.0952148:-1.5625:2.3125:-0.0625
1562063226040704:0:-1:-1:3:-5:0:-1:-4:-0.45166:-0.908203:0.103516:4.0625:1.4375:-0.5
1562063226100710:-2:1:0:-7:-3:-2:0:-1:-0.455566:-0.92627:0.0986328:2.875:0.375:0
1562063226142714:-1:-1:-1:-11:-1:-3:-1:-2:-0.483887:-0.913574:0.112793:6.5:-1.375:4.75
1562063226201720:0:0:0:3:4:3:2:1:-0.525879:-0.899414:0.121582:4.4375:-2.375:7
1562063226251725:0:-1:2:5:-1:2:2:1:-0.533691:-0.892578:0.134766:1.5:-3.6875:7
1562063226302730:-1:-3:-1:-1:-10:-3:-2:-3:-0.523438:-0.879395:0.137207:-2.1875:-3.875:6.3125
1562063226340734:1:-1:-1:3:1:-1:1:-1:-0.507812:-0.878418:0.116211:-4.5625:-4.125:5.5625
1562063226400740:-1:-1:-3:0:-2:0:1:0:-0.470215:-0.876953:0.124512:-4.6875:-2.125:4.125
1562063226453745:-2:-2:-3:-2:-1:-2:-3:-1:-0.45166:-0.887695:0.117188:-4.9375:-3.5625:2.8125
1562063226504750:0:1:-3:-10:1:1:0:0:-0.428223:-0.891602:0.10791:0.3125:-3.25:0.3125
1562063226543754:-2:1:1:-4:-5:-3:0:-1:-0.441895:-0.894531:0.10791:2:-0.875:-2.625
1562063226603760:1:0:2:-6:-3:0:-1:0:-0.480957:-0.908691:0.115723:3.9375:0.8125:-3.25
1562063226641764:0:-1:-1:7:1:-1:-1:-1:-0.503418:-0.901855:0.129395:3.125:1.9375:-0.0625
1562063226700770:0:1:-1:-2:3:1:2:2:-0.521484:-0.896484:0.126465:1.75:1.125:5.625
1562063226754775:-2:0:2:10:1:0:-1:-1:-0.527832:-0.867676:0.141113:-0.8125:-1:7.75
1562063226804780:1:-1:1:15:-3:2:0:0:-0.536621:-0.874023:0.123535:-2.3125:-1.625:6.25
1562063226843784:-1:2:1:-4:5:1:1:0:-0.529785:-0.846191:0.134277:-1.25:-2.9375:4.9375
1562063226903790:-2:1:1:-1:1:0:-2:-1:-0.519531:-0.866699:0.133789:-2.375:-2.9375:0.875
1562063226956796:-1:-2:0:-2:-2:-1:2:1:-0.508301:-0.879395:0.111816:-2.75:-0.75:-2.1875
1562063227004800:-3:-1:-1:-5:0:1:0:-1:-0.49707:-0.884277:0.129883:1.9375:-0.625:-1.1875
1562063227052805:-1:-1:-2:-5:-3:1:1:1:-0.483887:-0.897461:0.118652:2.75:0.6875:-0.125
1562063227105811:0:0:-1:4:-2:-1:-2:0:-0.486328:-0.884277:0.10498:1.6875:2.4375:4.125
1562063227142814:-1:0:-2:-6:-1:-3:-3:-2:-0.512207:-0.87207:0.109863:1.0625:2:4.875
1562063227202820:-1:-2:1:4:-2:1:-2:-1:-0.51416:-0.86377:0.106934:2.75:0.125:2.25
1562063227256826:-3:-2:-3:7:4:-1:0:-1:-0.516602:-0.867676:0.133301:-0.8125:-4.75:-1.625
1562063227304830:-1:-1:-1:-4:-3:2:0:0:-0.527344:-0.865234:0.138672:1.875:-5.0625:-3.25
1562063227353835:1:1:0:-12:-1:3:3:-1:-0.521973:-0.875488:0.151367:-1.75:-5.3125:-4.0625
1562063227405841:-2:-2:-3:-2:-10:-3:-3:-1:-0.500488:-0.887207:0.132324:1.0625:-3.1875:-4.25
1562063227459846:0:-1:0:9:1:0:0:2:-0.530762:-0.868652:0.162598:-0.5:-2.6875:-1.25
1562063227503850:-2:-3:-3:7:1:-1:0:-2:-0.486816:-0.899414:0.12793:0.9375:-0.9375:-0.9375
1562063227563856:-2:-1:5:0:2:-2:-3:5:-0.480957:-0.873535:0.14502:0.3125:0.3125:-0.0625
1562063227606861:-2:1:-1:10:-1:-1:-4:-2:-0.493164:-0.878418:0.138672:0.9375:1.3125:-0.1875
1562063227666867:1:1:-1:-2:7:4:3:4:-0.486328:-0.868652:0.148438:-0.0625:-0.1875:-0.5625
1562063227706871:0:-1:-3:-5:-4:-1:1:-2:-0.498535:-0.870117:0.149902:0.625:-0.5625:-1.375
1562063227765877:-2:0:-1:5:-2:-2:-2:-2:-0.491211:-0.884277:0.128418:-0.5:-0.75:-2.9375
1562063227818882:0:-2:-3:1:2:-2:2:1:-0.51123:-0.87793:0.13623:1.5:0.375:-3.5625
1562063227862886:1:1:-2:4:-1:-1:-3:-4:-0.513672:-0.896484:0.132812:-2.3125:-1.8125:-3.625
1562063227915892:0:-1:-1:-3:0:1:0:7:-0.493652:-0.885254:0.140137:0.6875:-1.625:-1.875
1562063227969897:-2:-3:-1:-11:-1:1:1:3:-0.485352:-0.892578:0.154297:1.4375:-1.25:-0.5625
1562063228005901:0:-2:-4:-2:1:0:1:2:-0.487793:-0.876465:0.147461:-0.5:-1.8125:-0.8125
1562063228065907:0:-1:-4:9:-3:-2:-1:-1:-0.477051:-0.879883:0.145508:0.5625:-1.0625:-1.875
1562063228119912:1:-1:3:7:3:-1:1:-2:-0.464355:-0.880859:0.158203:1.25:-1.0625:-1.6875
1562063228169917:-3:-2:-2:6:-1:-2:-4:-3:-0.465332:-0.892578:0.144043:0.75:0.5625:-1.8125
1562063228214921:0:2:2:-1:0:2:0:1:-0.480957:-0.881348:0.148438:1.25:0.8125:-2.125
1562063228268927:0:-1:-2:4:0:-1:-2:0:-0.494629:-0.893066:0.141113:-1:1.5:-2.4375
1562063228320932:-2:-1:0:-4:0:-2:-4:-3:-0.490723:-0.882812:0.145996:-0.25:0.0625:0.125
1562063228366937:-1:-3:-3:-1:-6:-1:-1:1:-0.476562:-0.897949:0.144531:0.0625:-0.375:1.3125
1562063228425943:0:0:5:2:-1:0:-2:2:-0.486328:-0.887695:0.151855:0.5625:-0.625:1.875
1562063228471947:-2:-1:1:8:4:0:5:3:-0.494629:-0.88623:0.152832:-0.1875:-1.375:1.5
1562063228524952:0:-1:-1:-11:0:1:1:2:-0.486816:-0.880371:0.155273:-1.6875:-1.875:0.9375
1562063228567957:0:-1:2:-3:-7:4:2:-1:-0.484375:-0.883301:0.152832:-1.4375:-2.3125:-0.3125
1562063228621962:0:-1:-6:-4:-3:-2:-5:1:-0.486816:-0.881836:0.15625:1.75:-2.3125:-0.6875
1562063228665967:-1:-2:-2:2:0:-2:1:2:-0.487793:-0.887207:0.154297:-0.4375:-2.375:-1.0625
1562063228725973:-1:-1:-5:-1:-1:-3:1:2:-0.47998:-0.884766:0.157227:0.6875:-1.125:-1.25
1562063228779978:4:2:1:3:1:3:0:-1:-0.474121:-0.885254:0.158203:2.375:0.125:-1.3125
1562063228829983:-2:0:-3:1:0:0:1:6:-0.478516:-0.885254:0.158691:2.875:1.375:-1.5
1562063228868987:2:0:1:-6:-5:-6:-6:-2:-0.476562:-0.88916:0.161133:0.875:0.125:-2.8125
1562063228927993:-2:-4:-6:-14:-11:-3:-5:-8:-0.475586:-0.893555:0.146484:0.75:-7:0.0625
1562063228981998:1:9:3:3:-6:-1:-14:12:-0.47998:-0.882812:0.161133:-0.6875:-4.1875:-2.5625
1562063229029003:6:-4:-20:-12:-12:-13:-36:-48:-0.507812:-0.883789:0.200684:-0.4375:-4.1875:3.5
1562063229079008:21:-6:-4:-2:4:25:77:6:-0.484863:-0.861816:0.208008:-13.125:17.0625:5.3125
1562063229134013:-38:-86:-29:-7:-7:-4:101:73:-0.541504:-0.956055:-0.100586:-33.6875:-6.5625:13.375
1562063229184018:100:-2:-2:-15:-16:-26:-121:-43:-0.40918:-0.916016:0.164551:31.75:-60.8125:27.9375
1562063229229023:59:32:-9:23:9:5:20:-127:-0.622559:-0.811523:0.19873:-30.75:-52.6875:5.375
1562063229281028:-38:-66:11:1:4:0:-52:-44:-0.481934:-0.785156:0.229492:7.375:-18.875:10.5
1562063229329033:-6:-4:-23:-16:-5:0:19:38:-0.507324:-0.888672:0.209961:-30.625:-7.4375:4.25
1562063229371037:-13:1:6:37:51:25:16:-24:-0.444824:-0.891113:0.154297:2.1875:9.8125:2.75
1562063229424042:-10:-7:7:55:-9:-4:1:-15:-0.501465:-0.853516:0.151855:-22.5:16:-17.875
1562063229484048:-3:-4:-17:-65:-28:-3:2:1:-0.601562:-0.987793:0.0722656:32.625:-5.375:3.625
1562063229532053:3:6:-11:-87:-2:5:13:12:-0.647461:-0.810059:0.127441:52:-22.5:4.1875
1562063229581058:-3:-4:-12:-9:5:2:-3:-1:-0.431641:-0.824219:0.250977:50.0625:-10.375:-17.6875
1562063229632063:2:2:8:-16:7:0:-5:-2:-0.412598:-0.859863:0.222168:-6.3125:1.1875:-20.8125
1562063229688069:1:-3:2:12:8:5:2:-2:-0.44873:-0.934082:0.182617:-5.6875:-0.1875:-8.3125
1562063229731073:0:0:0:-15:-1:0:-2:-1:-0.471191:-0.868164:0.188965:3.875:-1.75:-7.4375
1562063229784078:1:-1:-3:-22:-5:-2:-1:0:-0.470703:-0.894531:0.208984:-1.625:-3.5625:-6.4375
1562063229844084:0:0:0:11:-10:-6:-4:0:-0.439941:-0.908203:0.202637:4.4375:-1.5:-5
1562063229892089:0:0:1:15:-2:-3:-2:-1:-0.428223:-0.895996:0.214844:3.25:0:-2.4375
1562063229941094:-1:-1:0:0:8:2:1:-1:-0.443848:-0.904785:0.220703:1.3125:1.0625:-0.5
1562063229992099:-2:0:1:3:-5:1:-2:0:-0.444824:-0.891602:0.223633:1.25:1.5:0.3125
1562063230031103:0:-1:2:22:-5:-2:-3:-2:-0.442871:-0.893066:0.22998:2.1875:3.625:-0.5625
1562063230091109:0:-2:-1:5:-7:-5:-2:-1:-0.445801:-0.87793:0.231445:0.8125:5.375:-1.1875
1562063230145114:1:-1:-1:2:2:0:0:0:-0.452148:-0.883789:0.216797:0.8125:4.6875:-1.4375
1562063230191119:-1:-1:1:10:-4:-4:-2:-1:-0.4375:-0.901855:0.217773:-1.4375:3.125:-0.8125
1562063230242124:-3:-3:0:0:-1:-2:-1:-1:-0.426758:-0.90625:0.210938:2.75:3.25:0.625
1562063230294129:0:-1:-1:-9:2:1:3:1:-0.433594:-0.890137:0.226562:-1.875:1.8125:0.125
1562063230346135:2:1:1:7:1:2:2:1:-0.427734:-0.893555:0.219727:1.25:1.4375:-0.4375
1562063230391139:0:1:-1:-8:-2:0:0:-1:-0.444336:-0.890137:0.222656:-2.5625:2.125:-0.9375
1562063230446145:-1:-2:-6:-13:-4:0:1:0:-0.446289:-0.893555:0.20752:0:0.375:-0.8125
1562063230492149:0:-1:-3:-1:-12:0:-1:-1:-0.442871:-0.894043:0.195801:-0.1875:0.5625:-2.125
1562063230549155:-2:-1:-1:-3:-2:-2:-1:-1:-0.428711:-0.905762:0.210449:0.5:-0.25:-0.0625
1562063230594159:0:-2:-1:-6:4:1:0:0:-0.45166:-0.887695:0.213867:-0.3125:-0.8125:1.0625
1562063230645164:-1:0:0:5:-3:-6:-3:-1:-0.433594:-0.900391:0.20752:2:-0.5625:0.6875
1562063230690169:-2:-4:-5:-10:-7:-1:1:0:-0.415039:-0.88916:0.223633:2.125:-1.5625:1
1562063230751175:-1:-1:-4:-3:-1:-2:0:0:-0.451172:-0.890137:0.222168:-0.0625:-1.25:-0.0625
1562063230791179:1:1:-1:-8:-2:0:-1:-1:-0.453125:-0.888184:0.225586:0:-1.8125:-0.3125
1562063230852185:-1:0:1:3:-9:-2:-2:-1:-0.450195:-0.892578:0.22168:-0.1875:0.8125:-0.4375
1562063230894189:-1:-2:0:-5:-2:0:0:-2:-0.461914:-0.886719:0.21875:-3.625:0.1875:-0.5
1562063230947195:0:0:1:6:4:2:0:1:-0.442383:-0.895508:0.210938:-0.5:-0.9375:-1.375
1562063230991199:1:1:1:-5:-3:1:1:-2:-0.424805:-0.905273:0.211914:-0.1875:-1.5625:-2.625
1562063231054205:-1:-2:4:6:0:0:0:0:-0.427246:-0.894531:0.219238:1.5625:-0.4375:-2.5
1562063231095209:0:-1:0:7:3:0:-1:0:-0.430176:-0.891602:0.214355:-0.6875:0:-2.6875
1562063231149215:-1:0:-1:3:3:0:2:0:-0.428223:-0.900391:0.206543:1.625:2.4375:-1.4375
1562063231193219:1:-1:-5:-2:2:-2:-2:1:-0.448242:-0.887207:0.221191:-0.5:2.25:-1.6875
1562063231254225:-1:-1:-3:-2:2:3:2:0:-0.458496:-0.88623:0.210449:1:0.6875:-1.5
1562063231294229:-1:0:2:-1:0:-2:-2:-1:-0.439453:-0.897461:0.202148:0.4375:-0.5625:-2
1562063231353235:1:0:2:1:5:4:3:0:-0.409668:-0.903809:0.214355:1.25:0:-2.75
1562063231396240:-1:1:-2:-6:0:2:-1:0:-0.415039:-0.908203:0.237793:2.8125:0.9375:-0.5625
1562063231456246:-2:-1:1:5:-6:-3:-2:-1:-0.428711:-0.900391:0.240723:1.125:0.9375:0.5
1562063231494249:1:0:-1:11:4:-2:-1:0:-0.432129:-0.888184:0.23584:2.3125:2.1875:0.9375
1562063231553255:-3:-1:-4:-3:4:-2:-2:-3:-0.434082:-0.887695:0.239258:-0.3125:0.9375:0.1875
1562063231609261:3:2:2:-1:0:-2:0:0:-0.432129:-0.88623:0.226562:0.3125:-0.1875:-2
1562063231654265:-2:0:2:6:-2:1:0:0:-0.424805:-0.898438:0.206543:-1.625:0.1875:-3
1562063231696270:-1:1:3:14:4:-3:-4:-1:-0.404297:-0.90918:0.216797:-0.125:-0.3125:-1.6875
1562063231755275:-1:-1:-3:-7:1:0:1:0:-0.411133:-0.906738:0.221191:0.75:1.1875:-0.3125
1562063231808281:0:-3:-5:4:-2:1:0:0:-0.417969:-0.901855:0.230957:1.125:1.9375:0.375
1562063231854285:0:0:1:-6:-2:-3:-1:0:-0.425781:-0.901367:0.222168:0.4375:2.4375:0.8125
1562063231909291:-2:-1:-1:4:-2:0:0:-1:-0.434082:-0.900391:0.219238:0.375:2.3125:0.9375
1562063231953295:0:1:0:5:4:2:2:-1:-0.438965:-0.896973:0.211914:0.125:1.5:1.125
1562063231996300:0:1:3:-7:-1:-1:2:-1:-0.443848:-0.895996:0.216309:-0.5:0.1875:1.375
1562063232055305:-1:-2:0:-4:1:1:-1:0:-0.423828:-0.897949:0.20459:-0.125:-0.5625:1.3125
1562063232109311:2:3:0:-3:-1:-1:-2:-2:-0.435547:-0.895996:0.220703:-1.0625:-0.4375:1.375
1562063232153315:0:-2:-2:1:1:1:2:1:-0.428223:-0.893066:0.21875:-0.1875:-0.6875:-0.0625
1562063232199320:1:-1:1:-7:-3:1:2:1:-0.425293:-0.902344:0.213867:-1.25:0.3125:-0.25
1562063232258326:-2:-1:-1:-1:-1:-1:-2:-3:-0.428711:-0.905762:0.223145:-0.875:0.75:0.9375
1562063232311331:0:0:-2:-2:-1:1:1:-1:-0.438965:-0.894043:0.237305:0.1875:2.6875:3.125
1562063232355335:-1:-1:0:12:-4:-2:2:1:-0.431152:-0.893555:0.22998:-2.0625:2.75:4.5625
1562063232409341:0:0:-1:12:-5:-2:-3:0:-0.419922:-0.881348:0.205078:-0.8125:2.875:3.6875
1562063232456346:-2:-3:-2:-10:0:3:2:-1:-0.441406:-0.880371:0.172363:-5.25:4.3125:1.8125
1562063232514351:-2:-3:0:8:-11:-7:-2:-3:-0.476074:-0.933105:0.204102:-1.375:1.4375:1.125
1562063232558356:0:3:-1:2:3:0:0:0:-0.443848:-0.888672:0.205566:2.375:0.125:-1.25
1562063232611361:-1:1:2:4:1:1:0:1:-0.481934:-0.881348:0.226074:1:-1.75:-0.875
1562063232656366:0:-1:-3:-1:1:1:-2:-1:-0.452637:-0.910645:0.192871:-3.5625:-6.9375:-1.375
1562063232716372:-1:-1:0:0:1:-2:0:-1:-0.430664:-0.915039:0.210938:-5.1875:-4.3125:1.3125
1562063232757376:0:-2:-1:-7:2:3:3:0:-0.456543:-0.884766:0.234375:-2.25:-3:1.75
1562063232816382:-2:-1:0:9:-6:0:-1:0:-0.472168:-0.867676:0.208008:-2.875:-2.25:0.9375
1562063232858386:0:-2:0:-3:-2:-1:-1:-1:-0.422852:-0.901367:0.215332:-4.6875:-2.375:-1.5
1562063232911391:-1:-2:-5:-9:2:2:1:0:-0.390137:-0.913574:0.218262:0.625:-5.125:-3.0625
1562063232959396:-1:-2:-9:-3:-2:0:-1:-1:-0.399902:-0.92627:0.213379:-0.0625:-5:1.625
1562063233016402:0:0:-2:-3:-7:-2:0:0:-0.427734:-0.899414:0.21582:3.0625:-1.875:3.125
1562063233068407:-2:-3:-5:-8:-5:-4:-2:-3:-0.444824:-0.890137:0.209961:2.6875:1.5625:4.375
1562063233113411:-2:-1:1:0:8:4:2:1:-0.453125:-0.884766:0.223633:1.3125:0.6875:3.3125
1562063233158416:-1:0:3:9:1:0:1:0:-0.443359:-0.895508:0.218262:2.6875:-1.375:2.3125
1562063233218422:-1:-5:-7:-8:5:2:0:-3:-0.463379:-0.88623:0.224121:0.8125:-0.625:2.125
1562063233264426:-1:-1:-2:2:2:1:1:0:-0.458008:-0.879395:0.227051:1.6875:-0.1875:2.6875
1562063233319432:-4:-3:0:8:0:-1:0:0:-0.45752:-0.879395:0.22168:-1.8125:-0.5:1.5625
1562063233360436:0:-1:0:1:3:-1:2:2:-0.449219:-0.88623:0.234375:0.375:-0.875:0.6875
1562063233413441:-2:-1:-4:9:-4:-2:-3:0:-0.438965:-0.896973:0.212891:-1.375:-1.1875:0.25
1562063233459446:-1:-2:-2:-5:-2:2:0:-1:-0.444336:-0.891602:0.224121:0.25:0:1
1562063233518452:1:-1:1:9:2:0:0:-1:-0.438965:-0.890625:0.20752:0.6875:-0.5:0.0625
1562063233571457:2:1:1:-6:3:1:0:0:-0.449219:-0.885254:0.219727:1.25:-1.1875:-0.5625
1562063233619462:-2:0:-1:-5:2:2:-1:1:-0.448242:-0.890625:0.224121:2.625:-0.4375:-0.625
1562063233660466:0:-1:-3:-4:5:1:0:0:-0.458496:-0.878906:0.222168:0.5625:0:-0.375
1562063233720472:-1:1:2:2:-10:-3:-1:-2:-0.456543:-0.895508:0.220703:1.625:0.25:0.4375
1562063233773477:-1:-1:-1:2:0:0:0:-4:-0.456543:-0.888672:0.229492:2.0625:0.0625:0.6875
1562063233819482:1:0:-2:0:3:0:0:-1:-0.457031:-0.880859:0.224609:3.0625:1.25:-0.375
1562063233871487:-18:-4:-1:1:-1:-2:1:-7:-0.443848:-0.87207:0.233398:1:5.375:-3.875
1562063233924492:-10:11:15:6:1:-5:-25:41:-0.449707:-0.884277:0.263184:-3:7.8125:2.25
1562063233976498:52:16:11:3:1:-1:-23:45:-0.470215:-0.80957:0.234863:-20.1875:21.9375:0.6875
1562063234020502:-118:-23:5:17:14:19:74:17:-0.480469:-0.932129:0.0517578:-60.8125:4.3125:5.0625
1562063234073507:4:28:4:1:-10:-7:54:94:-0.29541:-1.05273:0.107422:-15.0625:-49.875:20.875
1562063234127513:45:7:1:28:-2:-4:-45:-19:-0.546387:-0.702637:0.272949:14.1875:-33.6875:25.6875
1562063234164516:100:19:-9:6:2:-2:-36:47:-0.446777:-0.857422:0.27002:0.875:-17.9375:-4.6875
1562063234224522:-31:-16:10:0:-1:0:-14:-4:-0.444824:-0.907227:0.206055:-10.1875:4.6875:-5.4375
1562063234275527:56:13:12:8:7:2:-21:25:-0.447266:-0.927734:0.17041:8.3125:9.25:-2.6875
1562063234320532:4:-7:-14:5:-12:0:31:-19:-0.450195:-0.899902:0.182617:-17.4375:0.6875:-9.625
1562063234374537:0:3:11:33:-5:1:8:-1:-0.42334:-0.907715:0.206055:-16.625:7.75:-9.375
1562063234421542:1:-1:7:57:56:2:9:-6:-0.504883:-0.945801:0.132812:4.3125:9.375:-0.25
1562063234482548:-4:-3:-4:23:-27:-14:-2:-4:-0.494141:-0.945312:0.131348:25.0625:-0.125:1.6875
1562063234524552:-2:-1:-7:-37:-6:1:2:-8:-0.46875:-0.807129:0.201172:43.9375:-18.3125:-7.3125
1562063234575557:3:2:-2:-23:1:4:23:10:-0.384766:-0.82373:0.280762:29.0625:-2.375:-25.5625
1562063234621562:-2:-3:-8:4:3:-4:-11:-5:-0.371094:-0.987305:0.226074:-28.3125:15.4375:-11.875
1562063234681568:-1:-1:1:20:11:1:4:-1:-0.37793:-0.980469:0.177734:-1.875:10.5625:0.0625
1562063234721572:-2:-2:-1:24:-5:-2:-4:-7:-0.428711:-0.902832:0.208496:-2.1875:0.3125:7.25
1562063234781578:1:1:1:-9:3:1:0:0:-0.433594:-0.896973:0.212402:0.0625:2.875:5.0625
1562063234823582:-1:0:2:-1:0:-1:1:1:-0.459473:-0.888672:0.179688:-7.6875:3:2.4375
1562063234884588:2:0:-3:6:4:1:-1:-2:-0.458984:-0.906738:0.193359:-9.3125:2.625:2.125
1562063234920592:1:0:0:-1:-4:1:-1:1:-0.439941:-0.901855:0.226074:3.4375:-3.625:4.9375
1562063234980598:-2:0:0:4:3:-2:-1:-1:-0.407715:-0.900391:0.18457:-3.75:-4.0625:2.375
1562063235026603:-2:-3:-7:-3:-5:-2:-1:-2:-0.416992:-0.910645:0.209473:0.875:-5.3125:1.5625
1562063235078608:-2:-3:-10:1:-5:-1:-9:-22:-0.410645:-0.916992:0.214844:1.6875:-3.5:3.3125
1562063235124612:1:-4:4:7:1:1:0:-11:-0.42041:-0.896973:0.237305:5.3125:3:6.1875
1562063235184618:-1:-1:3:0:8:-1:1:4:-0.45166:-0.881836:0.203125:0.3125:3.0625:4.8125
1562063235235623:1:-2:-4:-5:6:1:0:3:-0.466309:-0.891602:0.194336:2.6875:1.5:4.125
1562063235284628:-1:0:0:4:0:-3:-5:-20:-0.461426:-0.874512:0.211426:5.3125:-0.625:2.125
1562063235327633:-1:-5:-15:6:5:-1:0:-4:-0.442871:-0.882812:0.202637:2.125:-2.1875:1.0625
1562063235387639:0:1:-1:-2:-8:-2:0:3:-0.446777:-0.894531:0.216797:2.6875:-2.1875:1.6875
1562063235438644:-4:-7:-12:-1:-3:-2:-1:-4:-0.455078:-0.888184:0.220215:1.9375:-2.0625:-0.625
1562063235483648:-2:1:1:-2:-2:-1:0:1:-0.461914:-0.88623:0.228027:2.5625:-2:-0.5
1562063235536654:0:-2:-2:-2:3:1:-1:-1:-0.450684:-0.883789:0.236816:4.875:0.4375:0.75
1562063235583658:-2:-2:0:1:2:0:-2:0:-0.463379:-0.885742:0.255371:8.125:0.4375:1.5625
1562063235641664:0:0:-4:-7:4:0:1:-1:-0.439941:-0.885742:0.255371:8:-1.25:1.625
1562063235686669:-1:0:4:5:-3:0:-2:1:-0.429688:-0.847656:0.234375:4.9375:-1.0625:2.8125
1562063235739674:2:1:0:-4:4:2:2:-1:-0.442383:-0.876953:0.222656:-2:1.3125:-0.0625
1562063235791679:-1:-5:0:-8:0:-2:1:0:-0.444336:-0.893555:0.231934:-4.3125:3.625:1.5625
1562063235843684:2:4:4:-4:4:0:-1:-3:-0.45166:-0.873535:0.262695:1.3125:3.5625:3.0625
1562063235889689:-3:-1:1:-9:-6:-1:0:-2:-0.449707:-0.889648:0.236328:0:3.375:2.5625
1562063235941694:-1:-4:-7:-2:-3:-3:-2:-1:-0.448242:-0.885742:0.228516:0.3125:3.1875:4.1875
1562063235986699:-2:0:5:7:-3:-2:0:-5:-0.46582:-0.875:0.252441:1.75:3.5:4.125
1562063236038704:0:0:-2:-14:1:1:1:4:-0.479492:-0.859375:0.262695:-0.625:3.75:1.3125
1562063236086709:1:2:0:2:3:0:-1:2:-0.512695:-0.854004:0.219727:-3.9375:4.875:-4.5625
1562063236146715:-2:-1:2:4:3:-1:-1:-2:-0.478516:-0.881836:0.199707:-0.5625:6.9375:-6.375
1562063236189719:0:-1:-2:-5:2:-1:-2:2:-0.453125:-0.86084:0.255371:4.125:6.625:-5.8125
1562063236240724:-1:0:-1:6:-2:-2:-1:1:-0.447266:-0.890625:0.199219:-0.125:8.1875:-5.1875
1562063236287729:-1:-2:0:3:0:0:0:3:-0.506836:-0.873535:0.20752:-1.6875:7.75:0.3125
1562063236346735:-1:-2:-4:3:-11:-3:-1:-1:-0.499023:-0.892578:0.1875:1.3125:9.6875:5.4375
1562063236399740:-1:-2:-6:0:-1:-2:-2:-1:-0.473633:-0.883789:0.199707:-3.5625:7.0625:9.125
1562063236446745:0:-1:-4:-21:3:2:1:1:-0.479004:-0.881348:0.195801:1.375:8.0625:9.375
1562063236489749:-3:-1:-3:1:-4:-2:1:3:-0.479004:-0.87793:0.225098:1.375:5.6875:7
1562063236548755:-2:-1:-5:-5:-5:-4:-2:0:-0.481445:-0.863281:0.241699:3.3125:2.5625:1.25
1562063236586759:-1:-1:0:8:-6:-3:0:-2:-0.515625:-0.843262:0.233398:2.125:0.5:-2.125
1562063236646765:-1:-1:-2:1:-1:1:-1:0:-0.491211:-0.85498:0.231445:0.5:-0.9375:-5.1875
1562063236698770:0:-1:-1:-9:3:-1:-1:0:-0.480957:-0.861328:0.205566:-1.3125:-0.1875:-5.5
1562063236751775:-1:-2:2:-6:-3:-2:-1:0:-0.470703:-0.871582:0.201172:-2.75:-0.125:-4.25
1562063236788779:1:-1:-5:-6:-6:0:-2:0:-0.457031:-0.876465:0.189941:-0.75:-0.0625:-3.25
1562063236848785:-2:-2:-7:-5:-4:-5:-5:-4:-0.467285:-0.891113:0.171387:0.625:0.5:-2.1875
1562063236900790:-1:0:0:-13:-2:-1:0:-3:-0.475586:-0.891113:0.193848:2.375:0.3125:0.5625
1562063236949795:0:-1:-3:2:-1:0:1:1:-0.490723:-0.879883:0.210938:4.75:1.75:3.6875
1562063236991799:-1:-2:-6:-13:-4:-2:-2:-1:-0.506836:-0.867188:0.223633:2.0625:2.125:3.875
1562063237051805:1:-1:-1:2:6:0:-2:0:-0.517578:-0.857422:0.232422:2.0625:0.9375:3.3125
1562063237103810:1:-2:1:7:1:1:3:-3:-0.524902:-0.849609:0.224609:0.3125:0.375:1.6875
1562063237150815:-1:-2:0:3:-2:1:0:-13:-0.50293:-0.858398:0.223145:-1.3125:-1.25:0.1875
1562063237201820:0:-1:2:9:1:-3:-4:0:-0.500977:-0.865723:0.210938:-4.1875:-0.9375:-0.75
1562063237257826:1:0:4:0:1:0:-2:1:-0.479492:-0.868164:0.214355:-2:-0.6875:-0.625
1562063237305830:0:-3:-2:-2:-1:-1:2:1:-0.467285:-0.869629:0.210938:-1.25:0.375:-1.625
1562063237353835:-1:-1:-3:-8:-18:0:0:1:-0.469238:-0.882324:0.186035:-1.5625:2.6875:-4.3125
1562063237403840:0:0:-1:1:-1:-3:-4:-3:-0.462402:-0.887207:0.202148:0.625:2.625:-3.8125
1562063237451845:-1:-2:-2:-5:0:0:-1:-2:-0.480469:-0.875977:0.22168:0.4375:2.25:0.0625
1562063237501850:-1:-1:-5:-1:-5:-3:-1:-1:-0.492676:-0.878418:0.197754:-1.5:0.5625:2.6875
1562063237556856:0:-2:2:7:1:-2:-2:-2:-0.498535:-0.861816:0.183105:-2.5:-0.625:3.9375
1562063237605860:0:-4:-1:-6:1:0:0:-3:-0.506836:-0.872559:0.179199:-4.8125:-0.0625:2.5625
1562063237654865:-1:-1:-2:-12:-2:0:-1:0:-0.490234:-0.869629:0.198242:-5.3125:-3.5625:1.8125
1562063237703870:1:-1:1:-1:5:1:0:0:-0.483887:-0.878418:0.208008:1.875:-4.25:1.3125
1562063237752875:1:0:-2:-11:-6:-3:-1:-2:-0.512695:-0.850586:0.239746:2.875:-6:0.25
1562063237811881:1:1:-2:4:-1:0:0:-1:-0.462402:-0.868164:0.193848:-2.3125:-5.375:-1.3125
1562063237856886:0:0:0:-4:-10:0:1:1:-0.485352:-0.881348:0.241699:-1.5:-3.125:0.875
1562063237905890:-1:-2:-2:-10:3:1:-3:-1:-0.495117:-0.855957:0.229004:-0.625:-1.4375:-0.625
1562063237954895:-1:-1:-1:-3:5:2:2:2:-0.48291:-0.856934:0.214844:-0.25:-2.25:-2.9375
1562063238014901:0:0:-3:4:-6:3:1:1:-0.446777:-0.892578:0.187988:-1.8125:-1.5625:-5.25
1562063238063906:-1:0:-2:-6:-1:0:1:-1:-0.453125:-0.893555:0.197754:-0.9375:-2:-3.375
1562063238114911:-3:1:-2:6:6:0:-1:0:-0.470215:-0.885254:0.209961:0.375:-1.75:0.6875
1562063238155915:2:1:2:7:11:0:-1:-2:-0.491211:-0.874023:0.20752:1.625:-1.125:2.4375
1562063238216922:-1:-1:-3:-11:-2:0:0:-3:-0.489746:-0.871094:0.212402:2.4375:0.75:2.0625
1562063238266927:0:0:-1:-5:-1:0:-2:-2:-0.492188:-0.870117:0.21875:1.75:0.3125:0.75
1562063238314931:0:1:1:0:-5:-2:-1:0:-0.494629:-0.866699:0.224121:-0.0625:-0.5625:-0.875
1562063238363936:0:-1:4:13:2:0:-1:-1:-0.487793:-0.871582:0.229492:-1:-0.875:-1.0625
1562063238414941:-1:1:4:-7:0:0:-3:-2:-0.479492:-0.875488:0.216309:-1.125:-0.5625:-1.0625
1562063238469947:-3:-4:0:0:-3:-2:-3:-1:-0.467773:-0.879883:0.219238:-1.4375:-0.5625:-0.5
1562063238515951:-1:-3:0:2:-11:-4:-1:0:-0.463379:-0.875488:0.208984:0.875:-1.1875:-0.5
1562063238565956:4:12:5:5:1:-4:-41:33:-0.459473:-0.886719:0.200195:-0.0625:-1.375:-0.6875
1562063238614961:46:38:5:-3:-7:-11:-120:9:-0.414551:-0.791504:0.338867:-10.125:38.9375:15.9375
1562063238663966:-31:25:57:26:28:19:-31:-41:-0.507324:-1.07178:-0.21875:-87.4375:-52.875:15.1875
1562063238715971:-1:-21:-14:-19:0:2:-37:-76:-0.209473:-1.14404:0.280762:27.8125:-68.0625:23.8125
1562063238769977:47:-20:-11:-18:-4:-11:-50:52:-0.419922:-0.801758:0.307617:-12.125:-5.6875:-3.3125
1562063238816982:-72:-33:12:19:-4:-2:-72:-80:-0.484375:-0.814453:0.208008:-7:-0.3125:-15.3125
1562063238866987:-8:14:8:21:0:-2:-14:9:-0.495605:-0.981445:0.194824:-12.25:7.0625:-2.5
1562063238916992:-12:8:19:-11:24:-3:1:4:-0.461426:-0.801758:0.208496:-0.4375:9.4375:-19.25
1562063238972997:2:5:-5:-65:38:-3:-3:3:-0.443359:-0.963379:0.161621:-32.6875:9:-14.1875
1562063239016001:4:7:-2:-88:-9:18:8:7:-0.523438:-0.961914:0.0883789:-0.125:2:5.5
1562063239069007:-1:0:-12:-27:-18:-8:-12:2:-0.650391:-0.830078:0.0957031:68.6875:-25.1875:4.6875
1562063239124012:3:5:9:55:11:-1:-18:0:-0.375488:-0.767578:0.349609:49.75:-12.125:-31.25
1562063239177018:-11:-3:-5:-72:-14:1:26:19:-0.365723:-0.912109:0.222168:-31.3125:11.75:-10.9375
1562063239226022:-1:-9:-2:37:-2:-5:0:2:-0.408691:-1.00732:0.174316:-12.9375:8.5625:1.9375
1562063239277028:-1:0:4:26:2:-5:-6:1:-0.456055:-0.867676:0.205078:0:-1.125:5.9375
1562063239317032:2:0:-14:9:-17:-3:-12:-7:-0.45459:-0.882812:0.242188:-0.625:-1.6875:7
1562063239376037:1:9:4:12:0:0:-1:-7:-0.459473:-0.892578:0.225098:2.8125:0.375:3.0625
1562063239430043:-1:-2:-1:-2:-1:0:-1:-10:-0.460449:-0.903809:0.224609:-1.5:0.6875:3
1562063239477048:-1:-2:4:-6:-7:-1:-2:0:-0.468262:-0.884277:0.23584:3.625:0.5:5
1562063239527053:-3:-1:1:2:0:-3:-4:-25:-0.465332:-0.887207:0.236816:-2.3125:-0.875:6.1875
1562063239578058:-1:-3:-12:-13:3:1:0:4:-0.466309:-0.875:0.234375:0.3125:-1.125:6.8125
1562063239632063:0:2:2:-7:-3:0:5:4:-0.456543:-0.874512:0.223145:-1.625:-4.0625:5.9375
1562063239680068:0:-2:-3:3:-4:-4:-3:-4:-0.456055:-0.870605:0.241211:0.375:-2.5625:3.4375
1562063239728073:1:0:2:-6:5:2:2:4:-0.457031:-0.867676:0.227539:-3.1875:-2.375:1.1875
1562063239781078:0:0:0:-12:-4:0:3:-2:-0.463379:-0.876465:0.23877:-0.6875:-1.875:1.125
1562063239836083:1:-1:1:-16:-4:-1:-2:-1:-0.46875:-0.867188:0.223633:-1.1875:-0.375:0.1875
1562063239879088:0:-2:17:2:4:-1:-1:1:-0.462402:-0.873047:0.23291:-1.5:0.0625:-1.1875
1562063239932093:-1:-2:-8:-1:1:-4:-1:-3:-0.473633:-0.879883:0.225098:-0.25:0.5:-2.9375
1562063239979098:3:1:-11:-4:5:1:1:-2:-0.473633:-0.878418:0.243652:1.625:0.375:-2.5625
1562063240029103:-3:-3:-10:-3:-3:-3:-1:-4:-0.476074:-0.875488:0.226074:2.1875:2.1875:-3
1562063240080108:1:0:2:10:-1:-1:-3:-9:-0.474121:-0.881836:0.231934:-1.875:2.0625:-1.375
1562063240135113:-1:3:1:12:10:-2:3:3:-0.474121:-0.881348:0.219727:-0.8125:2.25:-2.4375
1562063240179118:-1:0:-5:5:-1:-3:0:10:-0.468262:-0.878418:0.210449:-3.1875:0.0625:-2.6875
1562063240240124:-2:2:-2:-10:0:1:-1:-4:-0.51709:-0.870605:0.217285:-0.5625:-2.75:9.8125
1562063240279128:-2:-3:-10:-1:-9:-3:-1:-1:-0.437012:-0.865723:0.213867:1.3125:-3.1875:8.3125
1562063240329133:-2:1:-2:-3:1:2:1:-5:-0.428711:-0.843262:0.203125:-4.125:0.8125:8.375
1562063240389139:-2:-1:-2:-8:-8:1:2:-2:-0.442871:-0.841309:0.223633:-5.8125:1:8.4375
1562063240440144:-2:-1:-3:1:3:1:2:-1:-0.440918:-0.859375:0.231934:-6.4375:1.5:3.125
1562063240485148:4:3:2:-4:3:2:2:2:-0.649414:-1.00732:0.243652:-4.9375:-2.25:-2.3125
1562063240541154:-1:0:-1:-3:-1:0:-2:-1:-0.535156:-0.894043:0.210938:-5.5625:-0.25:4.5625
1562063240592159:-1:0:0:1:-1:1:4:1:-0.467773:-0.851074:0.218262:1.6875:-2.3125:1.375
1562063240639164:0:1:1:-12:-1:0:-1:-3:-0.478516:-0.881836:0.224609:0.125:-6.125:0.5625
1562063240681168:-1:-1:-1:-4:-2:-2:-2:0:-0.472168:-0.879883:0.213379:1.25:-5.875:-0.125
1562063240741174:0:-3:-8:2:-4:-2:1:1:-0.492188:-0.85498:0.20752:-2.3125:-3.75:-0.25
1562063240794179:-1:0:0:-6:-4:0:-1:0:-0.492188:-0.866211:0.230957:2.375:-2.375:3.1875
1562063240838184:-1:0:-2:4:1:0:-2:-6:-0.484375:-0.862305:0.228516:-2.25:-3.1875:2.3125
1562063240892189:-1:-1:2:20:-14:-6:-2:-1:-0.495605:-0.856934:0.226562:0:-3.9375:1.6875
1562063240942194:-1:-1:0:6:-3:-2:-2:-1:-0.498047:-0.865723:0.238281:-0.4375:-2.8125:1.875
1562063240982198:-1:-1:-2:1:2:-1:1:0:-0.492676:-0.858887:0.245605:-0.3125:-2.8125:2.125
1562063241042204:2:0:1:9:5:2:1:3:-0.491699:-0.856934:0.221191:0.125:-2.4375:1.4375
1562063241094209:-1:0:-3:1:-2:-2:0:1:-0.493164:-0.862305:0.229004:-1.0625:-1.625:0.5
1562063241138214:-1:-2:-1:-14:3:2:0:-1:-0.491699:-0.861328:0.238281:-0.9375:-2.0625:-0.125
1562063241199220:-1:-2:0:-1:-3:-3:-2:-2:-0.490234:-0.856934:0.224609:-0.6875:-1.5:0.375
1562063241242224:0:-1:-3:-7:1:-2:-1:-1:-0.486328:-0.871582:0.23584:-1.25:0:-0.3125
1562063241298230:0:0:0:8:-2:2:3:2:-0.485352:-0.860352:0.229004:0.125:0.0625:-0.1875
1562063241342234:-1:0:-1:-13:-1:0:-1:-2:-0.493164:-0.866211:0.22998:-0.625:0.4375:-0.4375
1562063241394239:0:-1:-3:-15:-3:1:0:-1:-0.48584:-0.864746:0.227539:-0.9375:0.1875:-0.5
1562063241442244:0:-1:0:-4:0:-1:-1:-1:-0.486328:-0.868652:0.225098:-0.5625:0.3125:-0.6875
1562063241502250:0:-2:-2:-9:-1:-1:-2:-3:-0.494629:-0.858887:0.226074:-0.6875:-0.3125:-0.5625
1562063241551255:0:-1:-1:2:-5:-4:-1:-1:-0.483887:-0.866211:0.229492:-0.8125:-0.1875:-0.875
1562063241597260:0:2:2:-4:3:2:0:1:-0.488281:-0.863281:0.233398:-0.1875:-0.875:-0.125
1562063241649265:0:1:5:17:-5:0:0:1:-0.487305:-0.860352:0.234375:0.3125:-0.75:-0.0625
1562063241702270:0:-3:-4:-2:3:0:-2:-4:-0.484375:-0.867676:0.229004:-0.3125:0.25:0.375
1562063241745274:1:-1:-4:4:-8:-1:-2:-1:-0.47998:-0.868652:0.227539:-0.25:0.4375:0
1562063241800280:-1:0:3:-2:-4:-2:-1:-1:-0.486328:-0.865723:0.225098:0:0.4375:-0.4375
1562063241843284:-2:-1:2:5:7:1:1:-1:-0.488281:-0.864746:0.233887:1:-0.75:-0.5
1562063241905290:0:-1:2:2:-1:0:1:0:-0.489746:-0.865723:0.226074:-0.3125:-0.625:-0.4375
1562063241941294:0:-1:2:10:-1:-3:-3:-1:-0.484863:-0.864258:0.222656:0.3125:-0.4375:-0.3125
1562063242001300:-1:0:2:-2:-4:-1:0:0:-0.484863:-0.866211:0.233398:0:-0.1875:-0.3125
1562063242054305:-1:1:-1:0:-1:2:-1:-2:-0.483398:-0.866699:0.236816:0.3125:-0.5:-0.375
1562063242104310:-1:-1:-1:-5:1:1:-1:-1:-0.487793:-0.864746:0.230469:-0.125:-0.125:0.0625
1562063242143314:-2:-1:-3:-1:-12:-2:-1:-3:-0.486816:-0.870605:0.235352:0:0.25:0
1562063242203320:-2:-1:2:-8:-12:-4:-1:-1:-0.48877:-0.867188:0.225098:0.0625:-0.4375:-0.25
1562063242244324:0:1:-1:-6:-10:0:0:0:-0.480957:-0.867188:0.22998:-1.0625:-0.1875:-0.5
1562063242304330:-2:-2:-1:1:2:0:-1:1:-0.484863:-0.865723:0.236816:-0.125:-1.125:-0.6875
1562063242354335:1:0:0:7:6:1:0:3:-0.486816:-0.866211:0.226074:0.1875:-0.5:-0.4375
1562063242406340:1:0:0:-8:4:1:0:-1:-0.481934:-0.867676:0.229004:1.25:-0.6875:-0.1875
1562063242444344:-2:-3:3:-3:-1:-3:-2:-1:-0.48291:-0.865234:0.230957:-0.1875:-0.8125:-0.875
1562063242504350:0:2:0:-6:-4:-1:2:3:-0.481934:-0.868164:0.234375:-0.6875:-1.0625:-0.8125
1562063242557356:-2:-1:-2:-6:-4:0:0:1:-0.479004:-0.864258:0.234375:0:-1.0625:-0.625
1562063242607361:0:-1:-3:-11:0:-1:-1:-1:-0.476074:-0.868164:0.227539:-0.125:-0.4375:-0.125
1562063242646364:-1:-1:2:6:-13:-5:-4:0:-0.475586:-0.87207:0.236816:0:-0.3125:0
1562063242706370:1:0:-6:9:4:1:0:-1:-0.481445:-0.862793:0.23291:0.3125:0:-0.5
1562063242743374:0:-1:-2:0:4:0:0:0:-0.486328:-0.864746:0.233887:0.0625:-0.4375:-0.25
1562063242803380:0:-1:-1:-6:2:-1:2:-1:-0.479492:-0.869141:0.235352:0.8125:0.375:-0.4375
1562063242857386:0:0:0:-9:-6:-1:-3:-4:-0.481445:-0.867188:0.240234:1.75:0.0625:0.0625
1562063242907391:-1:0:-3:3:-2:-1:0:0:-0.472168:-0.863281:0.232422:1.3125:0.25:-0.1875
1562063242946394:-1:0:-1:2:-3:-2:-1:-3:-0.479492:-0.864258:0.237793:0.5:0.1875:0
1562063243006400:0:0:2:0:2:0:-2:-5:-0.486816:-0.866211:0.23877:0.875:0:0.25
1562063243059406:-2:-2:-6:-12:-3:-1:0:-2:-0.480469:-0.870605:0.231934:-0.5:-0.1875:0.4375
1562063243106410:0:0:-2:5:0:0:2:1:-0.479004:-0.862793:0.241699:-0.125:0.4375:0.125
1562063243156415:1:1:1:-3:-4:-1:1:-1:-0.47998:-0.867188:0.240234:-0.125:-0.1875:-0.0625
1562063243209421:1:-1:2:0:2:2:1:-1:-0.481445:-0.862305:0.248047:0:-0.6875:-0.1875
1562063243267427:-1:1:0:1:1:0:-2:0:-0.479004:-0.867188:0.23584:-0.5625:-0.125:0.125
1562063243306430:-2:-5:-1:2:0:-2:0:-1:-0.478027:-0.865234:0.236328:-0.1875:0.25:0.6875
1562063243365436:-1:-3:-1:11:-4:-3:0:-1:-0.480957:-0.86377:0.238281:-1.1875:0.4375:0
1562063243407441:-1:0:0:-4:-3:-2:-1:-1:-0.483887:-0.867188:0.241211:-1.625:-0.625:-0.6875
1562063243467447:0:-3:-3:-2:-1:0:0:-1:-0.483398:-0.866699:0.237793:0.6875:0.1875:-0.625
1562063243517452:-2:0:-2:1:-2:1:2:4:-0.481934:-0.871582:0.238281:-1.0625:-0.375:0.0625
1562063243561456:-1:-3:-7:-11:4:-1:-2:1:-0.478516:-0.866699:0.245117:1.1875:0:0.1875
1562063243605460:0:1:-2:-8:3:0:2:0:-0.478516:-0.867676:0.241699:0.125:-0.0625:-0.25
1562063243667467:0:-1:0:-6:-1:0:-1:0:-0.483398:-0.859863:0.235352:0.5:0.375:-0.5
1562063243719472:0:-1:3:-7:0:1:1:0:-0.479492:-0.868164:0.245117:0:0.1875:-0.4375
1562063243770477:-1:-1:0:-6:-5:0:2:-2:-0.478027:-0.86084:0.240723:1.8125:0.625:-0.4375
1562063243808481:-2:16:0:-3:0:-1:0:-2:-0.476562:-0.874512:0.23584:1.5:0.4375:-0.5
1562063243868487:1:-4:-2:-2:0:-1:0:-3:-0.474609:-0.863281:0.240723:1.0625:2.4375:-1.1875
1562063243921492:-42:-25:-13:3:1:1:-12:37:-0.487793:-0.833496:0.271484:-5.5625:3.5625:4.6875
1562063243969497:113:38:-12:-4:-12:-9:5:99:-0.472656:-0.827637:0.287109:-16.1875:20.125:7.1875
1562063244007501:-69:-39:10:-6:0:5:-1:-40:-0.549316:-0.971191:0.0571289:-36.6875:6.3125:-1.625
1562063244066506:-35:-9:-28:9:10:-5:-21:102:-0.460938:-1.03076:0.117188:-8.1875:-22.5625:6.5
1562063244108511:106:87:48:0:7:-4:-87:-91:-0.651855:-0.674805:0.25293:5.125:-9.6875:26.6875
1562063244169517:-71:-34:-41:-38:-12:-7:21:-95:-0.534668:-0.792969:0.246094:-14:-8.125:10.5
1562063244210521:55:52:-3:6:-2:1:45:31:-0.503418:-0.915527:0.229492:-15.0625:-3.1875:-0.1875
1562063244269527:4:-14:7:7:12:5:-7:-14:-0.489258:-0.828125:0.224121:6.0625:7.375:-2.9375
1562063244312531:-8:2:-1:32:3:-3:-14:-2:-0.494141:-0.890625:0.216309:-4.1875:2.9375:-18.5
1562063244371537:-10:-6:3:15:14:4:-5:-4:-0.499023:-0.870117:0.23877:-9.5625:9.75:-20.75
1562063244428543:-4:-5:-16:-79:4:-3:0:-6:-0.484375:-0.930176:0.117188:-12.5625:7.6875:-4.25
1562063244469547:-4:-2:-2:16:-8:6:3:3:-0.535645:-0.852539:0.15625:51.1875:-9.3125:7.375
1562063244528553:0:3:5:14:7:1:0:1:-0.509766:-0.74707:0.216309:31.5625:-12.0625:-10.0625
1562063244569557:-3:-2:-3:7:-4:-1:-2:-14:-0.455566:-0.872559:0.289551:3.3125:2.125:-25
1562063244629563:1:2:-1:-2:-7:0:0:10:-0.444824:-0.923828:0.195801:-10.0625:3:-13.4375
1562063244671567:-3:-3:-2:-20:-6:-4:3:-3:-0.45752:-0.906738:0.191895:2.5:-2.9375:2.0625
1562063244723572:1:-1:3:-2:1:-3:3:0:-0.463867:-0.874512:0.228027:2.875:-2.375:4.6875
1562063244768577:-2:1:4:18:-13:-4:-4:-3:-0.452637:-0.885742:0.228027:-0.4375:-2.25:3.125
1562063244829583:-1:-1:-3:-5:-1:-3:-3:4:-0.457031:-0.871582:0.221191:2.5625:-1.875:1.9375
1562063244869587:1:-1:2:6:-4:-2:-14:2:-0.463379:-0.881348:0.227539:-0.3125:-0.3125:0.5
1562063244929593:-2:-2:0:2:2:1:5:1:-0.470703:-0.878418:0.236816:0.75:-1.0625:2.0625
1562063244971597:-1:0:0:-2:0:-2:3:-2:-0.470703:-0.878418:0.223633:0.375:-0.1875:2.625
1562063245031603:-3:-2:-1:-3:3:0:-7:-12:-0.467285:-0.881348:0.226074:1.5:-1.0625:2.5
1562063245083608:-1:-2:-7:-7:1:0:-6:-3:-0.47168:-0.875:0.234863:-1.25:-1.0625:0.875
1562063245128613:1:-1:2:4:0:-3:0:3:-0.472168:-0.882812:0.219727:0.6875:-0.4375:0.8125
1562063245184618:0:2:0:-16:-5:0:1:2:-0.468262:-0.877441:0.223633:-0.3125:-1.1875:0.4375
1562063245233623:0:-1:2:3:-3:-3:-4:-3:-0.467773:-0.880859:0.228516:0.0625:-0.6875:0.5625
1562063245285628:-1:2:2:-9:-4:-2:10:6:-0.462402:-0.873047:0.222656:1.125:1.3125:1.1875
1562063245331633:-1:-2:0:-14:-6:-3:-4:-5:-0.462891:-0.876953:0.228027:-0.4375:1.125:1.9375
1562063245383638:-1:0:-3:-5:-1:2:1:0:-0.469238:-0.874512:0.222656:2.875:2.0625:0.375
1562063245432643:2:1:-1:2:0:-1:-1:-2:-0.481445:-0.861816:0.230469:1.0625:-0.25:-0.0625
1562063245474647:-2:-2:1:9:3:0:-2:-3:-0.476074:-0.883789:0.235352:0:-0.8125:-0.625
1562063245533653:0:-1:1:9:2:-2:0:-2:-0.473145:-0.865723:0.230469:2.125:-0.6875:-1.375
1562063245586658:0:-1:1:-1:-1:1:-1:-2:-0.469727:-0.880371:0.233398:-0.125:-0.3125:-0.875
1562063245631663:-2:-1:-2:8:-8:-4:-5:-8:-0.467285:-0.873047:0.238281:-0.125:-0.1875:-0.5
1562063245683668:-2:1:-2:-6:0:-2:4:-4:-0.472656:-0.877441:0.234863:-0.375:0.1875:0.1875
1562063245732673:-1:-1:-3:-19:0:3:12:-2:-0.469727:-0.881348:0.229492:0.25:0.625:0.875
1562063245774677:1:0:1:7:-1:-2:-4:-5:-0.467773:-0.875:0.233887:1.125:1.125:0.875
1562063245833683:-2:-3:-3:16:-3:-3:-2:-2:-0.474121:-0.875:0.229492:-0.5625:1.125:0.1875
1562063245886688:0:0:0:-3:-3:-1:-2:5:-0.478516:-0.866699:0.233887:1.1875:0:0.8125
1562063245930693:-2:0:1:-7:-1:2:-2:-4:-0.467773:-0.871094:0.229492:-0.5625:0.3125:0.1875
1562063245990699:-1:0:0:-4:3:1:-1:-2:-0.476074:-0.859375:0.230469:-1.5:-0.625:-0.625
1562063246035703:0:2:-1:-8:0:-1:3:1:-0.478516:-0.877441:0.235352:-1.6875:-2.5:-0.9375
1562063246092709:2:2:-3:-14:-4:-1:3:11:-0.47168:-0.867188:0.230469:-2.5:-2.1875:-1
1562063246133713:0:-1:0:2:4:0:-2:-4:-0.464844:-0.881836:0.234375:-1.1875:-0.9375:0.375
1562063246185718:-1:-3:-7:-9:-7:-2:-1:-1:-0.467285:-0.873535:0.23877:-1.875:0.6875:0.75
1562063246231723:0:1:-1:-3:-2:-2:-3:0:-0.464844:-0.87793:0.21875:-1.8125:1.8125:0.75
1562063246290729:-1:1:0:-2:-2:-1:-1:2:-0.472656:-0.868652:0.220703:-0.9375:1.875:0.5625
1562063246335733:-1:-2:-3:4:1:-2:-3:2:-0.474121:-0.866211:0.222168:-2.8125:1.9375:-0.125
1562063246374737:-2:-3:-4:0:-2:-1:1:1:-0.476074:-0.869141:0.214355:-0.875:0.25:-0.75
1562063246433743:1:-3:-5:-2:-4:-4:-1:0:-0.467773:-0.87793:0.217285:-0.8125:-0.0625:0.1875
1562063246493749:-3:-1:-2:-1:-5:-3:-1:-2:-0.473145:-0.879395:0.222656:-1.0625:0.75:0.375
1562063246534753:1:0:-1:-3:-4:0:0:3:-0.470703:-0.876953:0.231445:0.3125:0.9375:1.875
1562063246591759:-1:-3:-2:10:3:0:1:1:-0.470703:-0.876465:0.222168:0.625:1.75:2.4375
1562063246635763:-1:0:-3:-16:5:2:-1:-9:-0.481445:-0.864746:0.225098:0.3125:2.0625:1.5
1562063246688769:-1:0:2:0:-1:1:3:0:-0.481934:-0.871094:0.212891:1.125:1.25:0.25
1562063246733773:-3:-2:-4:-3:-2:-1:-5:-22:-0.475586:-0.880371:0.205078:-1:-0.5625:-1.1875
1562063246793779:1:-1:-5:-2:-2:-1:3:3:-0.476562:-0.870117:0.213379:0.1875:-1.3125:-1
1562063246833783:-2:-2:-1:-2:2:1:-1:2:-0.475098:-0.879883:0.219727:0:-0.75:0.375
1562063246892789:0:-1:-3:-3:3:-1:-4:10:-0.467773:-0.87793:0.210938:-0.875:-0.4375:0.9375
1562063246936793:-2:1:-2:-3:1:-4:-1:-2:-0.476074:-0.87207:0.220703:0.5625:0.25:1.3125
1562063246988799:-1:0:1:-3:2:0:0:-1:-0.476074:-0.871094:0.223145:0.4375:1:0.5625
1562063247033803:-1:-2:-4:4:-2:-3:-3:3:-0.483887:-0.870117:0.220215:-1:0.9375:0.375
1562063247093809:0:0:1:-5:4:2:0:-5:-0.480957:-0.866211:0.217285:0.1875:0.5625:0.375
1562063247142814:0:2:0:-1:0:1:5:10:-0.48291:-0.875:0.216309:-0.1875:-0.3125:-0.0625
1562063247176817:-1:-1:-4:-3:1:-2:0:-4:-0.477051:-0.870117:0.215332:-0.5:-0.1875:-0.375
1562063247235823:1:1:3:10:5:1:-1:-3:-0.482422:-0.871582:0.21582:-1.5625:-0.75:-0.75
1562063247295829:-1:-2:-2:0:3:-1:0:3:-0.476562:-0.87207:0.21582:0.0625:-0.125:-0.4375
1562063247336833:-2:1:2:8:-12:-4:-5:-2:-0.478027:-0.877441:0.214355:-0.25:0.3125:-0.25
1562063247396839:-1:-3:-1:-6:0:1:-1:-1:-0.476074:-0.875:0.216309:-0.0625:-0.1875:-0.3125
1562063247439844:-2:0:0:-4:2:1:-1:-3:-0.48291:-0.873535:0.216309:0.3125:-0.25:-0.25
1562063247490849:0:-3:2:-1:3:3:2:3:-0.473633:-0.879883:0.21582:-0.25:-0.5:-0.5
1562063247536853:-2:-2:0:12:2:-2:4:9:-0.480957:-0.872559:0.219727:-0.5625:-0.4375:-0.5625
1562063247596859:1:2:2:-2:-1:2:1:-7:-0.477051:-0.876465:0.227051:0.375:-0.25:0.125
1562063247637864:0:-3:-1:6:3:0:-2:-2:-0.474609:-0.875:0.213867:-1:-0.0625:0.1875
1562063247696869:0:-1:2:4:1:0:-3:0:-0.470703:-0.879395:0.218262:0.375:0:0.0625
1562063247739874:0:-2:-1:-14:2:3:-1:-2:-0.478027:-0.87207:0.213867:-1.0625:-0.375:-0.5625
1562063247790879:-2:-1:1:5:1:-4:-5:-7:-0.479004:-0.876953:0.220215:0.25:-0.4375:-0.1875
1562063247836883:-1:-2:1:4:-9:-4:-5:-4:-0.472656:-0.870117:0.22168:0.3125:-0.3125:0.1875
1562063247896889:0:0:-1:5:-3:-1:0:-2:-0.474609:-0.873047:0.219238:-0.3125:0.0625:0.5
1562063247949895:1:-1:-4:-6:-1:-2:1:1:-0.478027:-0.875977:0.21582:0.0625:0.0625:-0.125
1562063247979898:0:2:1:-6:5:2:0:1:-0.480957:-0.871582:0.221191:0:-0.25:-0.0625
1562063248038904:0:-1:-5:-2:0:-2:1:1:-0.475098:-0.87207:0.217285:-0.125:-0.5:0
1562063248099910:-1:-1:-2:-2:2:1:0:-4:-0.474609:-0.881836:0.217285:0:-0.0625:0.0625
1562063248151915:0:0:-1:5:0:-1:0:0:-0.472168:-0.870605:0.222656:-0.5:-0.3125:0.25
1562063248196919:-1:2:0:1:-2:-1:-1:-2:-0.478516:-0.874512:0.223633:-0.4375:0.125:0.3125
1562063248241924:-1:0:-1:-17:-7:-2:-5:-1:-0.475586:-0.871582:0.211426:0.125:-0.0625:-0.0625
1562063248301930:-1:-1:0:9:1:0:0:4:-0.478027:-0.869629:0.220215:0.3125:0:0.0625
1562063248353935:-2:-1:1:-5:-9:-4:0:2:-0.47998:-0.878906:0.224609:0:-0.8125:0.125
1562063248399940:0:1:0:-1:1:-1:-2:-6:-0.476074:-0.871094:0.219238:-0.4375:-0.8125:0.4375
1562063248450945:0:-1:2:9:2:-2:-3:0:-0.472656:-0.874023:0.218262:0.75:0.1875:0.3125
1562063248499950:-2:-1:-2:1:2:-2:-4:-1:-0.474609:-0.876465:0.213867:-0.25:-0.25:-0.125
1562063248542954:-1:-1:1:12:3:-2:-4:0:-0.481445:-0.866699:0.222168:0.5625:-0.0625:0.25
1562063248601960:-1:-1:-1:9:0:0:0:5:-0.478516:-0.875977:0.216309:0.9375:-0.5625:0.9375
1562063248653965:0:3:-1:-1:-4:0:12:11:-0.477539:-0.869629:0.220703:-0.5625:-0.5:1.4375
1562063248699970:2:-8:3:-5:6:-2:-6:5:-0.472656:-0.872559:0.223633:-0.4375:0.625:3.5
1562063248751975:-52:8:10:6:5:7:30:-55:-0.48877:-0.844727:0.248535:-4.9375:0.875:1.9375
1562063248799980:120:56:-3:5:-1:-8:-97:74:-0.467285:-0.850586:0.212891:-31.5625:20.0625:7.75
1562063248857986:127:56:-7:-10:-6:2:13:80:-0.527832:-0.937988:0.0668945:-23.9375:8.6875:5.75
1562063248901990:-50:-23:-4:-13:-9:-14:-103:-99:-0.390625:-1.05762:0.121094:17.5625:-45.4375:38.1875
1562063248954995:-63:-29:-59:-17:-18:-39:-85:-3:-0.623047:-0.768555:0.197266:-10.8125:-20.5625:36.3125
1562063249005000:109:58:23:-3:17:23:53:-17:-0.499023:-0.79248:0.23877:-15.375:-25.875:5.125
1562063249059006:40:-70:-10:34:6:-21:-128:9:-0.512695:-0.893555:0.217773:-8.5625:-12.625:10.6875
1562063249104010:-96:-44:-4:-14:17:-14:-128:-57:-0.555664:-0.806152:0.186523:-8.3125:-19.75:-0.625
1562063249158016:-114:-38:13:1:0:-7:-54:-20:-0.543457:-0.875:0.212402:8.0625:-7:3.125
1562063249202020:127:81:-39:19:-16:5:75:62:-0.519531:-0.899902:0.234375:-19.5625:-4.25:-7.375
1562063249253025:10:6:-12:-25:26:21:19:-19:-0.539062:-0.842285:0.208496:7.9375:0:-5.4375
1562063249303030:19:7:18:23:2:7:5:12:-0.545898:-0.756836:0.235352:-22:4.5625:-34.0625
1562063249362036:11:2:19:74:86:13:5:5:-0.448242:-0.933594:0.257812:-15.6875:23:-26.4375
1562063249405040:4:-2:0:-70:4:-2:1:0:-0.495117:-0.908691:0.0869141:24.125:19.625:-2.625
1562063249457045:0:1:-4:-100:-17:2:-11:-2:-0.53418:-0.843262:0.104492:28.0625:-2.3125:-1.375
1562063249502050:-2:-4:-4:-41:1:-3:-8:1:-0.499512:-0.697754:0.234375:32.9375:-6.25:-19.5
1562063249562056:4:-2:-5:0:-7:-4:22:21:-0.440918:-0.957031:0.230957:-4.375:13.9375:-19.625
1562063249615061:-4:-2:-1:-1:3:-5:-18:-6:-0.44873:-0.919434:0.190918:-5.875:-1.1875:-2.5
1562063249663066:2:1:-1:-3:5:6:11:1:-0.449707:-0.913574:0.199707:5.5:3.3125:2.0625
1562063249705070:-1:2:-13:5:18:-2:-7:-2:-0.467773:-0.881836:0.226074:-3.9375:1.125:2.4375
1562063249765076:0:-5:-11:-2:-1:-2:-6:7:-0.473145:-0.868164:0.212402:-0.625:-0.625:1.4375
1562063249802080:-1:1:8:6:-3:-1:14:-3:-0.470215:-0.876953:0.208496:0.125:-0.125:-1.5
1562063249862086:-1:-2:4:2:-3:-1:-4:3:-0.461426:-0.899414:0.221191:1.4375:-0.25:0.75
1562063249914091:-1:4:27:5:2:3:4:7:-0.461426:-0.877441:0.219727:-0.875:-0.5625:1.125
1562063249959096:-3:3:0:-6:-1:-1:8:-2:-0.463379:-0.898438:0.214844:-1.1875:1.4375:2.5
1562063250004100:-3:5:-4:8:-2:-2:-5:0:-0.46875:-0.867676:0.215332:-1.3125:0.375:1.375
1562063250065106:-3:-2:-2:-2:-1:0:1:3:-0.469727:-0.888184:0.219238:0.3125:0.5625:0.6875
1562063250117111:-6:-2:-5:0:-2:0:12:5:-0.467773:-0.869141:0.211914:2.375:1.25:-0.5
1562063250166116:-4:-1:4:-7:-1:-2:-9:-1:-0.469727:-0.882812:0.220703:1.8125:0.625:0
1562063250207120:0:-3:-7:-24:1:2:1:1:-0.472168:-0.882812:0.216797:0.1875:-0.4375:0.4375
1562063250267126:1:5:17:10:-4:1:1:-5:-0.471191:-0.893066:0.214355:-2.125:0:1.4375
1562063250318132:-5:1:14:-20:-8:-1:-19:13:-0.47168:-0.870605:0.217285:3.0625:-0.625:1.9375
1562063250365136:-1:-1:-3:4:8:1:-3:-3:-0.473145:-0.878906:0.222168:-0.0625:0.375:0.5625
1562063250416141:-5:-5:-12:-16:-3:-4:-17:0:-0.474609:-0.871582:0.214844:-0.25:-0.375:0.5625
1562063250465146:1:-1:1:-21:-3:0:5:1:-0.474609:-0.877441:0.218262:0.8125:0.375:-0.25
1562063250507150:1:0:-2:-15:9:-2:5:15:-0.475586:-0.871094:0.218262:-0.3125:0.25:0.1875
1562063250567156:0:1:8:40:2:-4:-2:0:-0.469727:-0.880371:0.219727:0.0625:0.9375:-0.3125
1562063250619162:2:-2:-5:1:-5:-2:1:3:-0.474121:-0.871582:0.22168:-0.9375:0.0625:0.625
1562063250667166:3:0:0:-9:7:0:-11:9:-0.476562:-0.869141:0.216309:1.4375:1.3125:0.25
1562063250716171:0:0:2:0:2:1:1:5:-0.476074:-0.87793:0.217285:-0.0625:0:0.0625
1562063250772177:-4:-3:-13:-9:2:1:-10:0:-0.476074:-0.870605:0.213379:0.125:0.1875:-0.0625
1562063250821182:-1:-2:-15:10:-4:-3:-2:-4:-0.471191:-0.878418:0.219238:-0.5:-0.25:-0.25
1562063250870187:0:1:7:-11:0:-1:-7:-4:-0.478027:-0.873535:0.220703:-1:-0.3125:0.375
1562063250929193:0:0:2:-6:-2:-1:5:0:-0.47168:-0.873047:0.226074:0.6875:-0.3125:0.125
1562063250979198:16:-1:-5:2:-2:-3:-2:3:-0.473145:-0.879395:0.205566:-0.8125:0.3125:-0.25
1562063251027202:-6:-2:-1:-4:-2:3:0:-9:-0.475586:-0.870605:0.219727:-0.9375:-0.4375:-0.125
1562063251077207:-1:1:8:-3:4:2:8:24:-0.476074:-0.872559:0.22168:0.375:-0.375:-0.375
1562063251122212:-3:-1:-1:-3:3:0:-3:-2:-0.477051:-0.874023:0.21875:-0.4375:-1.125:0.375
1562063251181218:-2:-1:-1:-7:-1:0:4:6:-0.467773:-0.87207:0.220215:0.25:-0.1875:-0.3125
1562063251229223:3:4:-8:1:-1:-2:-12:3:-0.46582:-0.874023:0.21875:0.3125:-0.625:0.4375
1562063251279228:-1:-3:0:2:-5:-2:-3:-6:-0.475586:-0.87207:0.220703:0.5:-0.375:-0.5
1562063251330233:1:0:4:-2:1:-2:-5:-6:-0.47168:-0.877441:0.213379:0.625:-0.375:0.0625
1562063251372237:0:3:4:-4:-1:1:-4:-1:-0.477051:-0.867676:0.217285:-0.75:0.1875:-0.1875
1562063251421242:-2:-3:1:4:6:-1:-1:1:-0.474121:-0.872559:0.211426:0.75:0.1875:0.125
1562063251482248:-2:-3:-9:4:-2:-2:-3:-1:-0.476074:-0.868164:0.220215:-0.25:-0.1875:-0.125
1562063251529253:-2:-4:-4:-16:-2:2:3:6:-0.474609:-0.866699:0.225098:1.1875:-0.5:-0.5625
1562063251579258:-1:-4:-3:-8:-4:-2:17:13:-0.472656:-0.874512:0.222168:-0.75:-0.25:-0.5
1562063251630263:-1:2:5:8:5:-3:-7:-5:-0.469238:-0.875488:0.229004:0.625:-0.4375:-0.125
1562063251685268:1:1:1:4:-5:-1:17:8:-0.466309:-0.878906:0.223145:-1.5:-0.875:-0.5
1562063251732273:-2:1:2:-6:4:0:-3:0:-0.473145:-0.871094:0.228516:-0.1875:0:-0.3125
1562063251782278:0:-1:5:2:-2:-2:-11:-5:-0.472656:-0.874512:0.225586:-0.0625:0.125:0.0625
1562063251830283:0:2:5:-5:-2:0:-4:-2:-0.476074:-0.880859:0.220703:0.25:-0.25:0.3125
1562063251872287:0:1:-18:9:-5:-2:-5:-6:-0.467773:-0.874512:0.223145:0:0.5:-0.0625
1562063251931293:-2:-2:-3:-5:0:-2:11:-5:-0.472168:-0.876953:0.227051:0.1875:-0.25:-0.3125
1562063251985298:1:-1:-6:1:1:1:0:6:-0.479004:-0.869141:0.222168:-0.375:-0.3125:0
1562063252032303:1:0:2:-2:2:-1:2:8:-0.466797:-0.885742:0.221191:-0.1875:0.5625:0.25
1562063252081308:0:0:-4:-10:-6:-3:5:6:-0.469727:-0.875:0.220703:-1.4375:-0.125:0.0625
1562063252133313:0:2:3:-3:-10:-2:-4:-5:-0.476074:-0.871094:0.21875:-0.1875:0.75:-0.0625
1562063252188319:-1:1:0:13:6:2:4:-1:-0.472656:-0.874023:0.218262:0.125:-0.375:0.25
1562063252231323:0:1:-6:-5:-3:-1:-7:-8:-0.470215:-0.882324:0.215332:0.375:0.375:0.3125
1562063252284328:2:1:13:8:0:-2:-1:3:-0.470703:-0.874023:0.215332:-0.8125:0.125:0.125
1562063252332333:1:-1:-5:-9:1:0:3:4:-0.477051:-0.87793:0.219727:0.1875:0.125:0.125
1562063252392339:-1:1:1:-9:1:1:0:-5:-0.477051:-0.875488:0.219238:0.5625:-0.75:0.3125
1562063252442344:2:-1:1:-6:3:2:-3:7:-0.472168:-0.874023:0.220703:-0.375:0:0.4375
1562063252492349:1:-4:-10:-7:2:-3:-2:4:-0.475098:-0.87207:0.220703:1.125:0:0.3125
1562063252535353:-1:0:1:-2:-3:-1:3:1:-0.481445:-0.871094:0.210449:0.25:-0.6875:0.1875
1562063252584358:-2:-1:-1:1:-3:-2:-1:3:-0.470703:-0.872559:0.228027:-0.5625:-0.625:0.875
1562063252644364:0:-4:-7:-9:-7:-1:-10:-2:-0.472168:-0.872559:0.222168:-0.9375:-1.4375:1.125
1562063252692369:-1:-1:-12:-4:1:-2:-2:-5:-0.464844:-0.876465:0.217285:-0.3125:-0.75:0
1562063252741374:0:-1:-3:0:-1:0:-2:17:-0.480469:-0.871582:0.227051:-1.375:-0.6875:-0.625
1562063252794379:0:-1:-2:-7:-5:-3:0:1:-0.477539:-0.874023:0.220703:-2:-0.8125:-0.3125
1562063252847384:0:1:1:13:-6:-1:9:4:-0.470215:-0.874512:0.222168:-0.4375:-0.6875:0.25
1562063252895389:-2:-3:-4:-13:-1:-1:-2:-10:-0.467773:-0.883301:0.225586:-0.75:0.125:0.5625
1562063252943394:0:-1:2:-8:-8:-5:-2:-3:-0.469238:-0.872559:0.21582:-0.9375:-0.0625:0.6875
1562063252992399:0:-1:-5:-5:5:1:-3:1:-0.473633:-0.868652:0.216797:-1.875:0:0.875
1562063253033403:2:4:3:18:2:0:4:2:-0.471191:-0.878418:0.223633:0.1875:-0.0625:0.75
1562063253094409:-1:-3:2:2:2:0:-6:-2:-0.476562:-0.875977:0.21582:-0.4375:0.125:0.4375
1562063253147414:-1:-2:-4:0:2:1:11:-13:-0.477051:-0.866699:0.219727:-0.5625:-0.25:0.0625
1562063253195419:-1:-1:-1:-8:4:0:-2:-3:-0.475098:-0.880371:0.225586:-0.125:-0.25:-0.4375
1562063253244424:-1:1:0:-6:-6:-2:-3:2:-0.478027:-0.875:0.21582:-1.8125:0:-0.1875
1562063253295429:-1:0:0:0:3:2:-3:-6:-0.476074:-0.876953:0.220215:0.0625:-0.125:-0.25
1562063253334433:0:0:1:-1:3:-1:-1:1:-0.471191:-0.874023:0.213867:-1.25:0.25:-0.1875
1562063253393439:-1:4:3:3:-1:0:-5:-14:-0.473145:-0.873535:0.22168:-0.3125:0.4375:0
1562063253447444:-2:-2:-1:-2:2:-2:-1:3:-0.475586:-0.880859:0.211914:0.125:0:0
1562063253495449:0:0:-2:-12:-4:0:8:4:-0.468262:-0.877441:0.211426:1.3125:0.125:0
1562063253544454:0:-1:-4:-4:0:1:-3:-5:-0.474609:-0.878906:0.218262:0.375:0:0.125
1562063253596459:0:1:3:2:3:3:-2:2:-0.475586:-0.875488:0.212891:0.8125:-0.125:1.0625
1562063253650465:-1:0:-2:1:7:2:0:1:-0.47168:-0.87793:0.212402:-0.375:-0.5625:0.625
1562063253694469:0:2:-5:-11:-3:0:5:5:-0.472656:-0.873047:0.21582:1.0625:-0.875:-0.1875
1562063253747474:0:-1:1:-5:-1:-1:-3:8:-0.475098:-0.879395:0.219727:0.8125:-0.75:0.25
1562063253795479:1:-2:0:0:-3:0:1:6:-0.475098:-0.871582:0.214355:1.3125:-0.125:0.1875
1562063253836483:-2:0:1:-2:0:1:-6:-8:-0.473633:-0.879883:0.227539:1.375:-0.6875:0.4375
1562063253897489:1:0:-1:-15:3:-1:2:3:-0.470215:-0.87793:0.220703:0.375:-1.1875:0.3125
1562063253949495:-1:-2:-3:6:-3:-2:-5:-5:-0.470215:-0.873535:0.226074:0.9375:-0.4375:0.0625
1562063253993499:-1:3:3:-2:-3:-1:13:-6:-0.473145:-0.873047:0.229492:0.375:-0.25:0.1875
1562063254047504:0:1:3:-2:3:2:-1:1:-0.476562:-0.874512:0.22168:0.75:0.1875:0.5625
1562063254098510:0:3:-1:-18:-1:2:7:-8:-0.47168:-0.875:0.220215:0.5:0.0625:0.1875
1562063254152515:0:-3:-5:3:-5:0:0:7:-0.476074:-0.870117:0.225098:-0.0625:-0.875:0.125
1562063254196519:-2:-2:-2:11:-10:-8:-9:-7:-0.475098:-0.873047:0.225586:0.375:-0.8125:-0.1875
1562063254249525:-1:1:5:12:6:2:-4:-8:-0.468262:-0.874512:0.224121:-0.3125:0.125:-0.0625
1562063254293529:0:3:3:-6:4:0:1:-1:-0.475098:-0.878906:0.227539:-0.125:0.1875:0
1562063254347534:-1:-1:-3:-5:1:1:0:2:-0.474609:-0.87207:0.227539:0.0625:-0.625:-0.125
1562063254397539:0:1:3:4:0:0:-2:-3:-0.469238:-0.873535:0.225098:0.4375:-0.9375:-0.0625
1562063254453545:0:0:-2:15:1:0:-2:1:-0.466309:-0.879395:0.220703:-0.375:0:-0.375
1562063254497549:-2:-1:-1:2:-1:-3:-5:-1:-0.475586:-0.869629:0.226562:0.8125:0.0625:0
1562063254556555:-3:-5:-1:-1:-7:-3:-2:-2:-0.473633:-0.875488:0.227539:0.875:-0.0625:0.3125
1562063254597559:-1:0:-4:-13:1:1:0:-3:-0.470703:-0.873047:0.225586:0.375:-0.4375:0.6875
1562063254646564:1:0:7:0:1:0:3:2:-0.473145:-0.876465:0.231445:0.875:0.1875:0.5625
1562063254707570:-1:0:-2:-6:2:0:-8:7:-0.474121:-0.873535:0.225586:-0.0625:-0.5:0.1875
1562063254752575:1:1:4:-4:4:3:-4:-1:-0.47168:-0.875977:0.228027:-0.25:-1:0.0625
1562063254796579:0:-1:-4:0:0:2:3:-10:-0.470215:-0.874023:0.231934:-0.3125:-0.5:0
1562063254856585:-1:-2:0:-9:-1:-2:-2:-4:-0.46875:-0.877441:0.224609:-0.1875:-0.1875:0.125
1562063254909591:-2:-1:0:2:1:0:6:-15:-0.474121:-0.876953:0.23584:-0.3125:-0.3125:0.375
1562063254959596:1:1:2:-7:1:-1:-6:-8:-0.468262:-0.879395:0.224609:1.625:0.1875:0.125
1562063254999600:-1:0:-2:3:-2:0:-9:-3:-0.478516:-0.876465:0.225586:-0.625:0.375:-0.125
1562063255058606:0:2:1:-7:6:2:-3:-3:-0.479492:-0.874023:0.227051:0.1875:-0.125:-0.0625
1562063255112611:0:3:3:2:1:1:11:3:-0.468262:-0.880859:0.228027:0.25:-0.4375:0.6875
1562063255156615:0:-2:-1:24:-9:-4:-3:0:-0.466309:-0.874512:0.229004:0.25:0.3125:0.0625
1562063255209621:-1:0:-1:3:3:0:-1:-3:-0.469727:-0.876465:0.227539:0.3125:0:0.1875
1562063255260626:-3:-2:-1:-6:-1:-1:7:-3:-0.470215:-0.872559:0.22998:-0.125:0.0625:0.25
1562063255315631:-1:-2:1:5:-7:-1:-1:4:-0.469727:-0.87207:0.235352:-1.1875:-0.375:-0.875
1562063255358636:-1:0:0:-14:-1:-1:-5:-2:-0.477539:-0.870605:0.22168:1.125:-0.5625:-1.0625
1562063255412641:1:-1:0:-2:1:3:2:-15:-0.473633:-0.87793:0.233887:0.3125:-0.625:-0.6875
1562063255459646:1:-1:1:-10:3:3:2:4:-0.471191:-0.875977:0.231934:-1.125:-1.3125:-0.5625
1562063255509651:-1:0:-1:8:-2:-4:-10:-10:-0.474609:-0.873047:0.228027:-0.5625:-1.125:-0.1875
1562063255568657:-1:0:3:-7:-3:0:-6:-17:-0.459473:-0.883789:0.231445:-2.0625:-0.5625:0
1562063255615661:0:0:-1:-6:-15:0:-8:-20:-0.46582:-0.873535:0.225098:-1.1875:0.375:0.0625
1562063255659666:1:1:-1:-1:-6:-4:0:0:-0.467773:-0.87793:0.225098:-0.8125:0.5625:0.25
1562063255719672:-2:-1:-3:2:1:0:2:3:-0.466309:-0.874023:0.218262:-1:0.0625:-0.1875
1562063255760676:-1:0:0:-6:0:1:-3:-2:-0.468262:-0.882324:0.219238:0.25:0.125:0.3125
1562063255819682:0:-1:-1:0:-6:-5:-3:4:-0.472656:-0.867676:0.225586:0.875:-1:0.1875
1562063255861686:-3:-3:-6:-1:0:1:-9:-16:-0.47168:-0.880371:0.232422:-2.6875:-1.1875:0.375
1562063255920692:0:0:-2:0:0:0:4:6:-0.463379:-0.878906:0.226562:0.5:0:1.4375
1562063255959696:0:-1:-1:-11:-2:4:5:0:-0.467773:-0.872559:0.231934:-0.25:0:1.625
1562063256019702:-1:-2:-2:5:-2:-3:-4:-2:-0.474609:-0.869629:0.226562:0.0625:0.3125:1.3125
1562063256072707:1:-1:-4:-3:0:-2:0:10:-0.474121:-0.876953:0.23291:0.25:-0.125:0.9375
1562063256122712:0:-1:-2:1:-5:-2:3:-10:-0.473145:-0.874512:0.223145:-0.3125:-0.25:-0.1875
1562063256162716:0:-1:-3:-16:-3:-5:-1:1:-0.470215:-0.871582:0.220215:0.1875:-0.75:0.0625
1562063256221722:-1:1:-1:-18:0:2:-9:-22:-0.478027:-0.873535:0.233398:-0.6875:-4.0625:1.1875
1562063256258726:-2:0:0:16:-1:-2:4:4:-0.469727:-0.875:0.231934:0.625:-0.6875:1.5
1562063256319732:-1:-1:-1:4:7:2:0:-8:-0.472656:-0.875488:0.217773:-0.125:0.375:-0.0625
1562063256371737:1:0:1:-4:0:1:-3:8:-0.476562:-0.875:0.21875:-0.3125:-0.6875:1
1562063256422742:1:11:2:6:5:1:-19:-54:-0.473145:-0.874023:0.227539:0.3125:-0.6875:0.125
1562063256462746:-16:-28:-6:4:1:-2:-19:-4:-0.499512:-0.867188:0.275879:-6.25:-0.875:8.3125
1562063256521752:-4:21:21:3:0:-5:-56:9:-0.463379:-0.914551:0.187012:-25.875:19.9375:-7.0625
1562063256574757:119:27:-3:-16:-13:-13:-106:-46:-0.504395:-1.00537:0.133789:-14.375:-3.0625:14.4375
1562063256622762:-96:-13:-10:-9:-8:1:69:12:-0.389648:-0.975586:0.187012:32.9375:-20.4375:37.75
1562063256671767:-128:-16:4:15:-4:-9:21:-3:-0.640625:-0.652832:0.252441:22.125:4.9375:25.75
1562063256724772:99:-26:-46:-27:-20:-18:-80:30:-0.536133:-0.85498:0.224609:-21.8125:-0.4375:0
1562063256777777:89:-30:-4:7:2:-5:-37:-43:-0.52002:-0.869141:0.18457:0.8125:7.0625:2.5
1562063256822782:-27:-15:-18:-8:-7:-9:-45:25:-0.529297:-0.919922:0.183594:-5.4375:-3.1875:2.4375
1562063256874787:-12:8:13:16:-4:3:20:-13:-0.531738:-0.799316:0.199219:10.25:0.625:-0.3125
1562063256924792:-8:-4:0:26:-74:2:0:-12:-0.539551:-0.887207:0.251465:-15.25:0.9375:-26
1562063256980798:0:7:4:-25:35:-6:4:-1:-0.445312:-0.912598:0.187988:-3.5625:9.9375:-9
1562063257025802:-4:0:3:-5:-23:-10:-13:-7:-0.521484:-0.936523:0.0825195:2:-11.4375:9.75
1562063257077807:-3:2:11:95:6:2:5:-7:-0.546875:-0.751465:0.23584:53.1875:-20.5:-0.5625
1562063257124812:-3:-6:0:18:2:-4:-6:-17:-0.476074:-0.76123:0.304688:8.5:-4:-19.4375
1562063257183818:1:0:1:-26:3:3:-5:0:-0.453125:-0.977051:0.210938:-10.3125:-2.8125:-11.875
1562063257233823:-1:-1:4:0:-4:-3:-2:1:-0.472168:-0.886719:0.186035:7.5625:3.0625:-1.125
1562063257285828:-3:1:-2:-20:-2:0:0:2:-0.480469:-0.880859:0.233398:-3.1875:-4.875:5.25
1562063257323832:1:2:5:-7:0:0:-3:4:-0.485352:-0.862305:0.254883:6.6875:-1.375:3.4375
1562063257383838:-2:2:1:-8:-1:-1:7:13:-0.480957:-0.868164:0.229492:-4.375:0.375:-2.25
1562063257424842:1:-2:0:19:6:-2:-2:2:-0.480957:-0.876465:0.225098:3.9375:0.8125:-1.5
1562063257484848:2:0:0:-1:-7:1:-2:7:-0.484375:-0.879395:0.240723:-0.5:0.875:-0.3125
1562063257526852:-8:1:1:-17:-3:-4:-7:-5:-0.479492:-0.856934:0.239746:1.0625:-0.0625:1.4375
1562063257586858:0:2:5:6:5:1:-1:-9:-0.483398:-0.877441:0.228516:-0.75:0.125:0.9375
1562063257623862:1:-3:-4:3:0:-1:2:4:-0.482422:-0.855469:0.235352:0.6875:-0.4375:0.1875
1562063257683868:-3:-3:-7:7:0:-5:-12:-9:-0.481445:-0.863281:0.232422:-0.75:-0.0625:-0.4375
1562063257724872:3:0:2:-7:-1:5:13:14:-0.479492:-0.87207:0.236328:0.6875:1:-1.1875
1562063257784878:-3:0:-2:-3:3:1:3:2:-0.47998:-0.871094:0.23291:-2.0625:-0.1875:-0.25
1562063257826882:-1:-2:-10:-17:5:-1:-1:-2:-0.484375:-0.866211:0.221191:0.625:0.1875:0.375
1562063257885888:-3:-1:3:1:4:3:-5:6:-0.477539:-0.865234:0.230469:-0.75:-1.0625:1.25
1562063257923892:0:0:1:-7:-1:-2:1:-2:-0.480957:-0.86377:0.239258:0.375:0.4375:-0.25
1562063257984898:1:2:-1:0:-1:1:-7:7:-0.484375:-0.86377:0.233887:-1.3125:-0.6875:-0.1875
1562063258025902:-1:-2:2:27:-22:-7:-7:-12:-0.481445:-0.867188:0.23584:2.5625:0.5:0.3125
1562063258084908:0:0:-3:-17:-3:-1:0:0:-0.482422:-0.870605:0.233887:-3.375:-0.75:0.5625
1562063258126912:1:-2:-4:4:0:-1:-1:1:-0.486816:-0.856445:0.23584:1.9375:0.5625:-0.0625
1562063258186918:1:-1:-6:-1:6:-1:11:15:-0.486816:-0.854492:0.229492:-1.875:-0.5:-0.9375
1562063258224922:-1:2:0:-8:-4:1:-4:-2:-0.478516:-0.869141:0.239258:0.75:0.5625:0.0625
1562063258283928:0:-2:1:0:-5:-3:6:-7:-0.478027:-0.862793:0.229004:-0.375:0.1875:-0.25
1562063258339934:0:2:5:19:-1:-1:0:5:-0.484863:-0.875:0.235352:-0.625:-0.25:-0.625
1562063258384938:-1:-4:-5:-5:4:-1:-8:-2:-0.48291:-0.862305:0.22998:-0.0625:-0.125:-0.375
1562063258442944:-1:0:2:25:-7:-3:5:-7:-0.476562:-0.870605:0.231934:0.0625:-0.25:0.5
1562063258486948:-1:0:-2:26:5:1:8:-24:-0.481445:-0.861328:0.225586:-0.875:-0.875:0.4375
1562063258523952:-1:1:-1:-15:2:-3:-3:5:-0.481934:-0.871094:0.228516:-0.25:-0.875:0.75
1562063258584958:0:1:6:-7:3:0:1:13:-0.48291:-0.861816:0.22998:-1.4375:-0.5:-0.125
1562063258639964:-2:-3:-2:-11:-8:-1:0:-2:-0.477539:-0.876465:0.23584:0.8125:0.0625:-0.125
1562063258688969:0:3:4:6:-6:-3:3:0:-0.477539:-0.867188:0.234375:1.0625:-0.0625:0.25
1562063258741974:-2:-2:-6:-4:-2:1:-1:4:-0.481445:-0.868652:0.232422:0.75:0.5625:0.6875
1562063258786978:-1:1:0:-16:-3:3:15:-14:-0.484375:-0.870117:0.233887:-1.0625:0.5625:-0.5
1562063258839984:-1:-3:-1:-3:-5:-5:8:13:-0.484375:-0.870605:0.223633:0.875:-0.4375:0.1875
1562063258887988:0:0:3:18:-3:-4:-7:13:-0.481934:-0.868652:0.225586:0.375:0.0625:-0.375
1562063258943994:-1:1:3:6:2:0:0:-4:-0.47998:-0.870605:0.236328:0.25:-0.125:0.1875
1562063258989999:-3:-3:-5:2:2:-2:-1:-4:-0.480957:-0.867188:0.233887:0.875:0.25:0
1562063259042004:0:-1:-3:-16:-10:0:-4:-10:-0.481934:-0.866699:0.230957:0.8125:0.1875:0.625
1562063259087008:-2:-1:-4:-8:5:0:1:3:-0.485352:-0.866699:0.236816:0.75:-0.25:0
1562063259147014:-1:-3:-2:-18:0:1:0:-12:-0.476562:-0.87793:0.240723:-1.3125:-0.75:0.5625
1562063259187018:0:-1:0:-6:2:0:0:-1:-0.483398:-0.862793:0.239258:1.125:0.1875:0.5625
1562063259247024:-1:-1:2:12:-1:-3:-8:5:-0.478027:-0.86377:0.229004:-0.0625:0.25:0.25
1562063259289029:0:-1:2:5:-1:2:19:11:-0.48584:-0.862305:0.236816:0.3125:-0.3125:-0.3125
1562063259343034:-2:1:4:-3:4:2:-2:-1:-0.482422:-0.87207:0.236816:0.25:-0.3125:-0.1875
1562063259387038:-1:2:0:3:1:-1:-3:-3:-0.477539:-0.869141:0.235352:-1.375:-0.3125:0.5625
1562063259447044:-1:-3:0:32:-2:-2:-4:3:-0.474609:-0.869141:0.239258:1.0625:0.5625:0.25
1562063259492049:-1:0:-1:4:-1:-1:-3:6:-0.481934:-0.859375:0.23584:-1:-0.375:0
1562063259545054:1:-1:0:-8:-6:-1:-4:-1:-0.482422:-0.866699:0.231934:0.1875:-0.125:-0.1875
1562063259590059:-1:0:0:3:3:1:5:-20:-0.483887:-0.866699:0.240234:0.625:-0.3125:-0.125
1562063259649065:-3:0:-1:-3:-4:-2:1:8:-0.479492:-0.871094:0.242676:0.6875:-0.1875:0.3125
1562063259690069:-2:-3:-2:-1:1:-2:-3:2:-0.477539:-0.871094:0.241211:0.875:0.3125:0.5
1562063259749075:-2:-3:-2:19:0:-2:-4:4:-0.483887:-0.861328:0.239746:1.3125:0.1875:-0.1875
1562063259792079:1:0:-2:-1:2:1:0:0:-0.482422:-0.866211:0.241211:1.3125:-0.4375:0.3125
1562063259851085:-2:-3:-2:-2:-2:-2:-3:4:-0.48291:-0.867188:0.236328:1.0625:-0.125:-0.1875
1562063259889089:-2:-2:0:-6:-1:-1:-7:2:-0.481934:-0.864258:0.242188:0.375:-0.8125:0.375
1562063259949095:1:1:4:-3:-1:1:10:9:-0.486816:-0.864746:0.242188:0.625:-0.1875:-0.1875
1562063260001100:3:3:5:1:2:2:-3:-5:-0.481934:-0.866211:0.234863:-0.75:-0.0625:0.4375
1562063260050105:-1:0:2:4:5:0:-7:2:-0.48291:-0.858398:0.236328:0.25:0:-0.1875
1562063260092109:0:1:-2:-19:-8:-2:-3:1:-0.483887:-0.863281:0.23877:-0.0625:-1.125:-0.25
1562063260151115:1:-1:1:7:-1:-2:1:4:-0.48291:-0.867676:0.243164:-1.6875:-1.1875:-0.375
1562063260190119:1:2:-2:6:-2:-1:-8:-1:-0.476074:-0.864746:0.233887:0.1875:-0.8125:-0.3125
1562063260249125:-1:1:-1:-1:-1:0:-17:-24:-0.480469:-0.865234:0.243652:-1.5625:-0.625:-0.875
1562063260302130:-1:-1:2:-1:4:0:12:-3:-0.482422:-0.864258:0.243164:0.25:-0.5:-0.125
1562063260350135:0:0:4:-3:-5:-3:-2:-2:-0.476074:-0.867676:0.242676:-1.3125:-0.4375:-0.25
1562063260392139:0:-1:0:3:0:-1:-5:-2:-0.477539:-0.868652:0.234863:-0.25:-0.4375:-0.1875
1562063260452145:1:1:0:-2:0:-1:5:3:-0.476562:-0.871094:0.234375:-1.1875:-0.375:-0.3125
1562063260489149:-2:-1:0:-9:-6:0:1:-4:-0.482422:-0.866699:0.238281:0.25:0.25:0.3125
1562063260552155:0:0:2:1:0:-1:-5:-8:-0.475586:-0.870117:0.240234:-0.75:0.5:0.3125
1562063260594159:-3:-1:-7:-8:-1:-2:-7:-15:-0.479492:-0.864746:0.236328:0.4375:0.5:0.8125
1562063260656165:-1:0:-2:-11:-10:1:-1:-15:-0.480957:-0.868652:0.242676:1.875:0.25:0.625
1562063260707170:0:1:5:10:-4:-3:-5:-8:-0.480957:-0.868164:0.239746:3:0.4375:0.625
1562063260751175:-1:0:-1:-2:3:-3:1:-3:-0.476562:-0.861328:0.243164:2.5625:0.125:0.1875
1562063260804180:-2:-1:-1:-8:-2:1:-7:-6:-0.479492:-0.866211:0.23877:0.9375:-0.4375:0.375
1562063260852185:-2:-3:-5:3:0:-3:-1:6:-0.478516:-0.866699:0.240234:-0.125:-0.1875:0
1562063260909191:-1:-1:-1:7:1:-3:-1:-1:-0.480957:-0.870117:0.241211:1:-0.125:0
1562063260956195:-1:-1:0:-6:-2:-1:-1:-3:-0.479004:-0.86377:0.240723:0.75:0.8125:-0.375
1562063261007200:0:2:7:16:2:0:-2:-4:-0.479004:-0.866211:0.248535:0.9375:0.6875:-0.5625
1562063261051205:-1:-1:-1:-5:1:-1:4:4:-0.479492:-0.866699:0.242676:0.1875:-0.5625:0
1562063261112211:-3:-3:-3:-4:-7:-2:4:16:-0.474121:-0.869629:0.241211:1.1875:0:-0.0625
1562063261152215:1:1:0:-3:0:-1:2:5:-0.480469:-0.874512:0.250488:-0.75:-0.25:0.4375
1562063261212221:0:-1:1:2:-4:0:8:16:-0.47998:-0.858887:0.244629:0.5625:-0.4375:0.625
1562063261255225:-1:-4:-5:-1:0:0:-4:-2:-0.480469:-0.870605:0.24707:-0.125:0.3125:0.3125
1562063261314231:-3:-4:-5:2:-3:0:-1:2:-0.481934:-0.861816:0.241211:0.75:-0.6875:0.4375
1562063261352235:-1:2:-2:-2:-1:1:-10:-1:-0.481445:-0.856934:0.240234:-0.125:-0.125:0.25
1562063261411241:0:-1:1:-20:9:0:0:-3:-0.481445:-0.867676:0.25:-0.0625:-0.625:0.5625
1562063261465246:0:-2:-4:0:-2:-1:0:-1:-0.481934:-0.871094:0.246094:1.6875:-0.75:1.9375
1562063261509251:-2:0:7:19:3:0:3:-7:-0.47998:-0.858887:0.246094:-1.8125:1.625:0.4375
1562063261554255:-1:1:4:3:-5:-3:2:7:-0.483398:-0.855957:0.240723:-0.6875:1.1875:0.125
1562063261614261:-1:7:-4:6:-2:1:-7:-6:-0.485352:-0.860352:0.23877:-0.9375:0.4375:0.0625
1562063261654265:-17:-20:-3:-2:6:2:5:10:-0.480469:-0.856934:0.26123:-4.6875:3.4375:3.375
1562063261713271:-51:-26:1:4:-3:2:25:24:-0.475586:-0.854004:0.25:-9.6875:10.9375:2.1875
1562063261758275:-30:8:6:0:1:-2:-43:4:-0.491699:-0.878418:0.184082:-17.0625:12.6875:2.125
1562063261817281:-44:-22:-9:-2:-5:-6:8:-21:-0.492676:-0.906738:0.160645:-14.875:0.4375:6.5625
1562063261854285:-5:-8:-1:7:-3:0:6:13:-0.495117:-0.850586:0.202637:4.0625:-4.0625:18.0625
1562063261915291:59:-2:5:31:4:0:31:-30:-0.544922:-0.818848:0.22998:2.875:1.375:18.125
1562063261967296:49:10:4:-1:10:5:-50:19:-0.504883:-0.870117:0.195312:-0.4375:-0.8125:2.3125
1562063262015301:-65:7:23:7:7:-6:-52:35:-0.523438:-0.839844:0.197266:-2:1.1875:6.6875
1562063262057305:-17:24:-6:-1:-4:-4:-69:-3:-0.547363:-0.827148:0.202637:-1.375:-2.75:0.75
1562063262117311:127:16:5:0:0:6:46:4:-0.505371:-0.893555:0.216309:-8.125:4.3125:-0.9375
1562063262169317:44:10:3:-6:-6:-10:14:56:-0.538086:-0.811523:0.182129:11.0625:4:3
1562063262214321:-16:-16:-14:-6:-1:5:1:-8:-0.542969:-0.85498:0.176758:-0.5:0:0.375
1562063262266326:-43:4:-3:-10:-4:-6:-52:-11:-0.547852:-0.820801:0.203125:7.75:-2.875:0.9375
1562063262320332:1:-8:-4:-24:12:1:-8:1:-0.513184:-0.866211:0.220215:-14.9375:0.5:-12.5625
1562063262372337:1:3:13:23:35:-1:-8:-2:-0.512695:-0.899414:0.227051:5.4375:3.1875:-16.125
1562063262417341:1:-2:-1:14:-27:-13:-3:-1:-0.519531:-0.874512:0.146484:-22.875:-4.5:-0.25
1562063262470347:-1:-2:-3:-72:-27:7:1:-3:-0.541992:-0.915039:0.140137:13.3125:-14.6875:10.4375
1562063262517351:0:-2:-3:-3:-5:-2:-12:0:-0.563477:-0.719238:0.202148:39:-15.5625:3
1562063262560356:-2:-4:-4:9:6:4:14:-7:-0.48877:-0.80127:0.330566:-11.75:-3.75:-21
1562063262620362:0:0:0:3:-3:-1:9:-8:-0.45459:-0.874512:0.206055:9.5625:6.6875:-13.5625
1562063262671367:-1:-1:-2:-1:0:-3:-3:4:-0.506348:-0.911621:0.186035:-11.125:-2.1875:-2.6875
1562063262717371:-2:-2:0:19:18:4:4:-6:-0.504883:-0.829102:0.236816:9:-1:2.75
1562063262777377:-1:-1:-1:3:-6:-3:2:5:-0.491211:-0.845215:0.251465:-2.8125:-3.125:1.1875
1562063262818381:0:1:-1:-12:15:-2:-1:11:-0.474121:-0.875:0.231934:1.375:0.0625:-2.9375
1562063262877387:1:0:1:4:-15:-1:7:2:-0.494629:-0.858398:0.228516:-1.875:-0.1875:-0.375
1562063262919392:1:0:5:7:0:7:4:-13:-0.489258:-0.878906:0.230469:0.25:2.1875:0.5625
1562063262972397:0:1:-3:0:-8:-2:2:-4:-0.481934:-0.862793:0.224121:2.375:-0.125:2.3125
1562063263017401:0:-2:-3:-22:-1:2:7:10:-0.494141:-0.866211:0.228516:1.0625:-0.4375:0.5
1562063263077407:0:-1:-3:-7:-4:0:-2:-4:-0.497559:-0.849609:0.231445:2.625:0.5:-0.125
1562063263129413:1:-2:-3:11:0:-3:-7:-4:-0.488281:-0.864746:0.236328:-0.25:-0.8125:-0.4375
1562063263177417:1:0:3:4:-7:-3:-10:-1:-0.487305:-0.869629:0.23877:1.9375:0.1875:-0.8125
1562063263219422:-4:-1:-2:12:1:-3:-9:-10:-0.492676:-0.858887:0.231445:0.1875:-0.25:-0.0625
1562063263279428:-1:-1:-1:-3:1:0:-9:-20:-0.486816:-0.862793:0.238281:3:-0.625:0.0625
1562063263332433:2:0:-2:-3:2:1:2:12:-0.492676:-0.85498:0.238281:-3.75:-2.6875:-2.25
1562063263376437:-1:-1:-3:3:17:-3:0:2:-0.479492:-0.870117:0.22998:-8.5625:-1.6875:-1.0625
1562063263423442:2:2:10:10:-2:-1:-3:1:-0.484863:-0.87793:0.227051:3.4375:1.375:2
1562063263482448:-1:0:-5:-3:-1:1:2:0:-0.487305:-0.852539:0.231934:1.375:0:1.1875
1562063263534453:-1:1:0:0:0:-2:-2:1:-0.48877:-0.856445:0.234375:3.75:-0.25:0.75
1562063263579458:2:1:2:19:12:3:0:-4:-0.489746:-0.861328:0.239746:-0.3125:-0.5:-0.5
1562063263631463:0:-1:-5:-12:4:0:0:-2:-0.48584:-0.864746:0.231934:2.3125:0.375:0.0625
1562063263680468:-1:0:-4:-1:-5:-3:-2:-2:-0.486328:-0.854004:0.23877:0.125:-0.75:-0.6875
1562063263722472:0:-2:-2:-2:2:0:5:-2:-0.489258:-0.860352:0.249023:1.5:-1.0625:-1.0625
1562063263783478:-3:-4:-3:5:-3:-3:-15:-15:-0.492676:-0.852539:0.237793:-1.125:-1.25:-1.625
1562063263834483:-2:-2:-3:16:-1:-1:16:16:-0.47998:-0.863281:0.21875:-2.9375:-0.0625:-2
1562063263879488:-1:0:-4:-9:0:0:-1:2:-0.45459:-0.883789:0.236816:-5.125:1.1875:-3
1562063263931493:0:1:8:20:-9:-2:-7:-6:-0.493652:-0.864746:0.245117:-3.25:1.625:-4.625
1562063263979498:2:0:-2:-5:3:1:0:-16:-0.507324:-0.86084:0.22168:-1.9375:-0.6875:-1.75
1562063264037503:1:-1:-1:-1:4:-2:-10:-2:-0.494141:-0.877441:0.225098:-1.1875:-0.5:2.5
1562063264083508:0:-2:-4:-5:2:0:-6:0:-0.464844:-0.866699:0.245117:0.625:-2:4.625
1562063264134513:2:1:5:6:1:3:3:0:-0.463867:-0.876953:0.236328:-1.5625:-1.75:3.5
1562063264182518:-2:-2:4:18:4:0:-2:-1:-0.476074:-0.85791:0.222656:-0.1875:2:2.4375
1562063264232523:-3:-5:-10:-8:-10:-4:-6:-7:-0.482422:-0.870117:0.222656:1.6875:1.375:2.25
1562063264287528:1:0:1:-5:3:0:4:8:-0.499023:-0.854492:0.211426:1.375:-0.5625:-0.1875
1562063264337533:0:-1:-2:-9:-1:-5:-3:-2:-0.488281:-0.869629:0.214844:-1.3125:-2:-1.625
1562063264384538:-1:1:-1:6:4:1:-2:-2:-0.484375:-0.864746:0.241211:1.1875:-3.125:-1.0625
1562063264434543:1:0:1:-13:6:2:0:0:-0.481445:-0.866699:0.241211:-0.8125:-2.625:-1.0625
1562063264485548:0:-1:-2:0:2:2:-7:-3:-0.483887:-0.871094:0.237793:0.4375:-0.5625:1
1562063264540554:1:-2:-2:0:-1:-1:-6:-7:-0.48584:-0.86084:0.242188:0.625:0.5:0.25
1562063264587558:1:2:3:15:5:-2:2:3:-0.484863:-0.865234:0.234375:-0.3125:0.375:0
1562063264636563:1:-4:-6:0:4:-1:1:4:-0.491211:-0.861816:0.231934:2.375:0.5:-0.6875
1562063264687568:0:1:2:0:-2:1:2:-5:-0.484863:-0.871582:0.233398:-2.0625:-0.5625:-1.4375
1562063264734573:0:0:-3:1:1:3:4:3:-0.473633:-0.871582:0.239746:1:-0.5625:-1.125
1562063264787578:-1:-1:4:-5:4:0:-2:2:-0.477539:-0.872559:0.235352:-0.1875:0.25:0.1875
1562063264839584:-1:1:4:4:-1:-1:-7:-7:-0.479004:-0.867676:0.234375:0.25:0.125:0.4375
1562063264887588:-2:-3:0:-4:-9:-2:0:-11:-0.48584:-0.859863:0.230957:0.375:-0.1875:0.375
1562063264936593:-1:-1:-2:1:1:3:7:5:-0.489258:-0.86084:0.236328:-0.75:-0.875:0
1562063264985598:0:1:1:1:0:-4:-3:3:-0.48291:-0.863281:0.240723:-0.4375:-1:0.25
1562063265044604:3:3:7:3:3:4:0:-3:-0.481445:-0.866211:0.238281:-0.1875:-0.0625:-0.375
1562063265094609:-1:-2:-1:3:-11:-3:-2:-3:-0.483398:-0.86377:0.243164:-0.4375:0:-0.1875
1562063265139614:-2:-1:-1:2:5:0:-4:0:-0.48291:-0.865723:0.235352:-0.8125:0.3125:-0.0625
1562063265187618:0:0:2:2:-11:-2:-2:-3:-0.476074:-0.871094:0.239746:-0.8125:0.1875:-0.0625
1562063265237623:1:0:4:12:6:-1:2:1:-0.487305:-0.865234:0.233398:-1:-0.0625:-0.625
1562063265287628:0:0:-1:7:-4:1:1:-2:-0.480469:-0.868652:0.228027:-1.125:-0.625:0.125
1562063265343634:-3:-2:1:-2:-3:-3:-1:0:-0.473145:-0.874512:0.236328:0.4375:0.25:0.1875
1562063265387638:0:-1:0:4:0:-1:-2:-3:-0.480957:-0.869141:0.230469:-0.5:-0.125:0.5
1562063265439644:0:1:2:-1:0:3:2:1:-0.481934:-0.864258:0.233887:1.8125:1.125:0.75
1562063265498649:2:-1:0:13:-9:-3:-3:5:-0.478027:-0.871094:0.236816:-1.0625:-0.0625:1
1562063265547654:0:1:2:-1:0:0:0:-2:-0.487793:-0.856445:0.231445:0.375:0.125:0.25
1562063265597659:0:-1:-1:5:-5:-3:-4:-4:-0.484863:-0.870605:0.23584:-0.75:-0.25:-0.0625
1562063265648664:1:2:3:-1:-4:-2:-7:5:-0.48584:-0.862305:0.239258:0.25:-0.375:-0.0625
1562063265690669:-1:0:0:4:1:2:1:-4:-0.478027:-0.869629:0.237305:-0.5625:-0.25:0.125
1562063265750675:-1:0:0:-6:-1:1:-3:-3:-0.47998:-0.866699:0.22998:-0.0625:0.125:0.125
1562063265799680:-1:0:-2:5:0:-2:-5:2:-0.478027:-0.866699:0.237793:0.125:0.375:0.625
1562063265847684:-1:-1:-4:-13:0:1:0:-2:-0.478027:-0.859863:0.230957:0.6875:-0.0625:0.25
1562063265896689:-1:-1:-3:1:-4:-2:-2:0:-0.48584:-0.857422:0.232422:-0.6875:0.0625:0.3125
1562063265949695:-4:-3:-1:3:0:-1:0:3:-0.48584:-0.855957:0.241211:1.875:-0.125:0.5625
1562063266003700:0:-2:-6:1:0:0:1:-5:-0.480469:-0.865723:0.237305:-1.75:-1:0.375
1562063266050705:0:-1:-4:-11:0:0:2:4:-0.485352:-0.858887:0.22998:2.5:-0.25:0.25
1562063266099710:-3:-1:-1:-5:-1:0:4:-14:-0.484863:-0.864746:0.239746:0.0625:-0.5625:0.0625
1562063266147714:0:-1:1:3:-4:-2:-6:-4:-0.48584:-0.866699:0.238281:0.6875:-0.4375:-0.0625
1562063266197719:-1:-1:2:3:-2:-1:0:2:-0.483398:-0.864746:0.241699:1.625:0.125:-0.0625
1562063266248724:-3:-2:-2:-6:2:0:-4:-15:-0.477539:-0.866699:0.23877:-0.375:-0.625:0.25
1562063266302730:-5:-2:-7:-2:2:0:2:4:-0.479004:-0.867676:0.239746:0.8125:-0.25:-0.125
1562063266352735:-10:-7:-2:-1:-1:0:2:3:-0.486328:-0.86377:0.245605:-2:0:0.75
1562063266399740:-5:-1:-3:-8:-4:1:3:-11:-0.483887:-0.854492:0.245117:-3.6875:1.1875:2.4375
1562063266449745:93:18:1:3:0:-1:12:-59:-0.481445:-0.862793:0.224609:-8.875:5.3125:1.375
1562063266488748:20:-13:-7:5:2:0:-9:31:-0.495117:-0.870605:0.229492:-8.3125:7.9375:4.8125
1562063266549755:-37:3:-2:0:-1:1:-2:27:-0.479492:-0.908203:0.168457:4.125:3.75:10.8125
1562063266601760:65:36:-17:-12:-11:-8:56:68:-0.481445:-0.913574:0.196289:8.3125:-1.125:19.3125
1562063266649765:15:-7:-7:-3:-2:-5:-77:-37:-0.504395:-0.830078:0.234375:8.9375:-3.4375:20.25
1562063266698769:-88:-40:-2:1:-4:-6:-18:42:-0.556641:-0.734863:0.245605:2.1875:4:12.5625
1562063266750775:44:11:-4:-5:0:1:52:-40:-0.525879:-0.842773:0.234863:-14:2.1875:-0.75
1562063266805780:54:38:-7:9:1:-3:14:16:-0.543945:-0.835938:0.199707:-9.5:2.4375:-0.625
1562063266849785:-91:12:-8:3:-3:11:62:25:-0.541504:-0.817383:0.199707:-2.5625:4.125:-2.8125
1562063266902790:18:-6:-6:1:-3:-8:-42:-15:-0.52002:-0.884766:0.204102:3:0.25:-0.3125
1562063266949795:24:10:8:13:1:-3:-22:-11:-0.534668:-0.806641:0.175293:-0.1875:-1.4375:-4.1875
1562063266999800:6:4:6:-37:-15:-3:-5:-2:-0.535156:-0.890137:0.223145:-7.5625:-0.375:-15.625
1562063267051805:8:4:7:15:5:-10:-5:-1:-0.476074:-0.870605:0.217773:2.4375:5.3125:-2.75
1562063267105810:0:3:0:-21:11:10:1:-2:-0.52832:-0.904297:0.141602:10.5:-4.0625:8.75
1562063267152815:-1:-1:-8:-42:-16:1:-3:-3:-0.559082:-0.782227:0.162598:19.5625:-9.0625:1.5
1562063267201820:24:-1:-1:-6:8:5:12:-4:-0.516602:-0.814941:0.248535:7:-7.5:-12.5
1562063267252825:-4:-1:2:6:4:2:9:7:-0.486816:-0.871582:0.235352:-7.375:-2.25:-12.3125
1562063267312831:6:1:0:8:1:4:-7:-20:-0.48877:-0.871094:0.20459:2.375:0.8125:-4.625
1562063267351835:-1:-2:0:7:-1:-2:-7:-11:-0.498535:-0.870117:0.206055:0:-0.3125:-0.5625
1562063267411841:0:-2:-5:-13:0:-3:-1:2:-0.49707:-0.858887:0.220215:1.625:-1.75:-0.1875
1562063267448844:-2:-1:-1:-8:-6:1:16:21:-0.495605:-0.85791:0.223633:0.625:-1.5625:0
1562063267509851:3:0:0:-10:6:-1:-5:0:-0.493652:-0.869141:0.220703:0.1875:-1.125:-1.3125
1562063267561856:0:-1:1:-2:1:0:4:1:-0.487793:-0.860352:0.223633:2.3125:0.25:-0.75
1562063267612861:0:-2:-8:-20:-4:-1:-3:-2:-0.490723:-0.869141:0.226562:0.125:-0.25:-0.5
1562063267652865:-2:-4:-5:7:-2:0:8:-7:-0.494141:-0.857422:0.227051:1.9375:0.375:0.125
1562063267711871:1:0:2:5:-1:1:-2:2:-0.489746:-0.867676:0.231934:0.3125:-0.125:0.1875
1562063267755875:-1:-1:-1:4:-1:-1:-9:-9:-0.489746:-0.859863:0.227051:1.625:-0.5:0.3125
1562063267812881:2:1:-5:-5:-5:-3:1:6:-0.492676:-0.866699:0.225098:-0.625:-1.0625:-0.125
1562063267861886:0:0:1:3:4:2:13:-1:-0.491211:-0.867188:0.22998:0:-0.4375:0.1875
1562063267913891:-1:0:1:0:3:4:7:5:-0.491211:-0.854492:0.227539:-2:-0.4375:0.1875
1562063267967896:-3:-4:-6:7:-11:-4:-6:-7:-0.490723:-0.874023:0.231445:-0.5625:-0.8125:0.3125
1562063268012901:-1:-2:-2:14:2:-1:-3:-2:-0.496582:-0.854004:0.223145:-1.25:0:-0.1875
1562063268064906:0:-4:-5:-15:-3:0:1:7:-0.495605:-0.865234:0.230469:1.0625:-0.25:0.875
1562063268112911:2:0:0:7:-2:-2:0:1:-0.494629:-0.855957:0.229004:0:0.25:0.375
1562063268154915:1:-3:0:-1:-4:-2:-2:-6:-0.493652:-0.868164:0.231934:-0.9375:-0.1875:0
1562063268214921:-1:0:-3:-3:-4:-1:8:6:-0.490234:-0.861328:0.226562:1.4375:0.5625:-0.1875
1562063268267926:3:-1:0:-1:2:1:-1:0:-0.495605:-0.86084:0.233887:-1.5:0.8125:-0.625
1562063268312931:-1:1:-3:1:1:-1:-6:-1:-0.490723:-0.872559:0.226074:-0.5:0.75:0.1875
1562063268372937:0:-1:3:1:1:-1:-5:-5:-0.493652:-0.862793:0.221191:-2.9375:1.8125:-0.1875
1562063268414941:0:1:7:-2:1:3:2:-1:-0.490723:-0.875977:0.21875:-0.5:1.5625:0.1875
1562063268470947:1:-1:0:-11:5:0:-2:11:-0.493652:-0.859863:0.224121:-0.5625:0.1875:-0.0625
1562063268514951:-1:0:0:-3:1:-2:-6:-6:-0.499512:-0.865723:0.227539:0.375:-0.3125:-0.0625
1562063268574957:-1:-1:-3:-7:4:0:1:2:-0.494141:-0.861816:0.221191:0.5:0.125:0.0625
1562063268612961:-1:-3:-5:-4:-4:-2:-5:-3:-0.493164:-0.866211:0.227051:0.75:-0.0625:0.3125
1562063268675967:1:-2:2:0:1:0:-1:0:-0.493164:-0.866211:0.229004:-0.625:0.5:0.0625
1562063268724972:0:1:2:-9:1:3:3:5:-0.493164:-0.862793:0.231934:0.375:0.5625:-0.25
1562063268774977:0:0:1:11:6:-3:-7:-5:-0.492676:-0.861816:0.219727:-0.625:0.125:-0.1875
1562063268813981:-1:-1:1:-11:2:-1:-1:-2:-0.489746:-0.864746:0.22998:-0.0625:0.4375:0
1562063268873987:1:3:3:3:-1:0:1:5:-0.490234:-0.863281:0.219727:0.4375:-0.125:0.1875
1562063268927992:-2:0:0:-8:-5:-2:-5:-4:-0.491211:-0.861816:0.222656:0.125:-0.25:0.3125
1562063268974997:0:-1:-2:-4:0:-2:-1:11:-0.490234:-0.866211:0.225098:-0.25:0.0625:-0.1875
1562063269025002:0:-6:-7:0:-7:-2:1:-3:-0.491211:-0.866699:0.231934:0:0.0625:-0.1875
1562063269078007:0:2:0:-1:0:5:0:-1:-0.491211:-0.862793:0.221191:-0.0625:-0.1875:0.0625
1562063269130013:1:2:5:8:0:1:1:-4:-0.494141:-0.862793:0.223145:0.4375:-0.3125:0.0625
1562063269174017:0:-1:-2:-1:0:-1:-1:-3:-0.496094:-0.869141:0.23291:-0.3125:-0.625:-0.0625
1562063269228022:-2:-2:-2:2:0:-1:-7:-19:-0.493164:-0.865723:0.219727:-0.4375:-0.375:0.125
1562063269278027:-3:-8:-4:2:4:0:1:-1:-0.491699:-0.865723:0.225098:0.8125:0.125:0.375
1562063269334033:-1:0:-2:17:1:-2:-1:0:-0.494141:-0.862793:0.223633:-0.3125:-0.25:-0.125
1562063269377037:-1:4:2:-10:-3:0:-1:-1:-0.492676:-0.859863:0.232422:-2:-0.125:-0.5625
1562063269430043:-2:-2:-6:4:2:2:-3:-1:-0.494141:-0.874512:0.219238:0.875:-0.0625:0.375
1562063269474047:1:2:4:9:3:1:1:0:-0.493164:-0.856445:0.215332:0.125:0.125:0.5
1562063269534053:0:-2:-3:-2:-1:-3:-3:1:-0.488281:-0.864746:0.22168:0.5:-0.125:0.0625
1562063269579057:1:0:5:-1:-1:2:2:-2:-0.494629:-0.86084:0.224609:-0.5625:-0.4375:-0.125
1562063269633063:-2:1:2:-6:-3:-1:1:1:-0.490234:-0.866699:0.219238:0.3125:-0.1875:0.0625
1562063269677067:-1:0:0:-3:0:-1:-4:-5:-0.493164:-0.865723:0.224609:-0.625:-0.0625:0.375
1562063269730073:-3:0:-2:-9:-3:-3:-1:-2:-0.493164:-0.86084:0.21875:0.125:0.25:0.5625
1562063269777077:-1:1:3:8:4:1:0:-1:-0.494141:-0.86377:0.225098:-0.1875:-0.125:0.4375
1562063269828082:1:0:0:2:3:-4:0:0:-0.492676:-0.865234:0.226562:-1:-0.125:0.25
1562063269879087:1:-1:1:-14:-4:1:-2:0:-0.496582:-0.86377:0.226562:-0.3125:-0.5:0.3125
1562063269932093:-1:-1:-1:25:3:-2:1:0:-0.490723:-0.868164:0.231445:-0.0625:0.125:0.25
1562063269978097:-1:0:-4:-7:-2:0:-1:-1:-0.491211:-0.86377:0.220703:-1.0625:0.0625:0.1875
1562063270030103:-2:-2:-1:-6:-4:1:-1:-14:-0.497559:-0.852051:0.224121:-0.6875:-0.25:-0.0625
1562063270081108:-2:-1:0:1:-1:-4:1:1:-0.498535:-0.875:0.22998:0.6875:-0.0625:0.375
1562063270136113:-1:1:0:1:0:1:4:3:-0.493652:-0.853516:0.226074:-0.6875:0:0.375
1562063270180118:2:1:2:-1:0:2:3:1:-0.494629:-0.871582:0.219727:1:0.375:0.9375
1562063270239123:-1:1:0:5:0:1:4:-12:-0.498535:-0.86377:0.218262:-0.5625:-0.125:1.25
1562063270277127:0:0:0:0:2:-1:-5:0:-0.495117:-0.865234:0.216797:0.25:-0.375:1.0625
1562063270337133:-1:-2:-2:1:-2:-2:-4:7:-0.495605:-0.86377:0.226074:-0.4375:-0.625:1.5
1562063270380138:-1:0:4:2:1:1:-2:2:-0.493652:-0.861328:0.225098:-0.0625:-0.25:1.25
1562063270436143:1:-1:2:-2:-3:0:-2:5:-0.498535:-0.865723:0.220703:2.5:0.4375:1
1562063270479147:1:1:-1:-1:3:1:2:1:-0.504395:-0.852539:0.227051:0.8125:-0.6875:0.3125
1562063270539153:-4:-3:-3:0:-1:-4:-3:-12:-0.495605:-0.858887:0.222656:-0.5:0.375:-0.125
1562063270580158:-2:-7:-3:-2:-5:-2:21:11:-0.496582:-0.850586:0.229004:-0.4375:2.0625:-1.3125
1562063270641164:-2:-1:-2:2:0:-2:-7:3:-0.490723:-0.878418:0.222656:-4.9375:4.75:-0.375
1562063270689168:-3:-4:-5:-2:-2:-2:-1:-10:-0.493652:-0.876953:0.213379:-0.5625:5.375:1.8125
1562063270741174:1:-3:6:6:2:3:3:-8:-0.499512:-0.863281:0.196289:-1.375:2.875:3.5625
1562063270779177:-1:-7:-4:-2:1:-3:-6:8:-0.510742:-0.857422:0.207031:1.3125:2.0625:4.5625
1562063270839183:-8:12:18:2:3:3:1:26:-0.499512:-0.859863:0.210449:-5.4375:0.5:2.75
1562063270895189:73:-1:3:-2:-4:-5:-43:-19:-0.510742:-0.849121:0.200684:-2.625:2.125:5.25
1562063270940194:93:24:7:-4:1:1:0:19:-0.517578:-0.85791:0.199219:-10.25:-0.3125:4.5625
1562063270981198:-38:-14:-1:0:0:1:19:-24:-0.511719:-0.852539:0.187988:-6:-0.5:11.25
1562063271034203:45:16:3:6:3:6:68:6:-0.527832:-0.870117:0.191895:-4.75:-0.75:11.1875
1562063271094209:-15:-25:20:3:10:2:-63:24:-0.534668:-0.833008:0.189941:1.5:-1:13.6875
1562063271140214:40:23:6:3:5:7:54:49:-0.570312:-0.865723:0.169922:-1.875:-6:9.25
1562063271196219:-8:-1:10:12:20:12:-86:-70:-0.561523:-0.842285:0.187988:-2.1875:-8.375:9.125
1562063271241224:-58:25:25:-2:-10:-10:27:95:-0.566406:-0.828613:0.192871:3.4375:-11.1875:8
1562063271298229:-7:-13:-9:-8:-7:-18:-105:-62:-0.537109:-0.865234:0.226074:-8.875:-9.5625:7.5
1562063271342234:23:-19:-2:3:3:4:1:-34:-0.538086:-0.837891:0.238281:1.375:-2.25:7.9375
1562063271394239:-97:-34:-1:0:-9:-19:-51:77:-0.577148:-0.823242:0.196777:-5.375:-3.5:4.8125
1562063271440244:17:-12:15:-1:5:7:32:-64:-0.579102:-0.79834:0.208008:2.5:-0.6875:2.3125
1562063271479247:-19:-17:40:27:20:6:-59:18:-0.560547:-0.832031:0.218262:-5.25:-2.0625:-0.9375
1562063271540254:-1:-15:-8:-5:-1:1:3:-26:-0.571289:-0.800781:0.198242:1.75:1.25:-2.75
1562063271598259:-11:7:5:10:-1:1:-30:-12:-0.571289:-0.808594:0.209961:2.6875:1.8125:-6.875
1562063271641264:7:4:-1:25:3:2:-5:0:-0.557617:-0.858887:0.209473:-3.25:1.5:-5.875
1562063271694269:9:2:-2:0:-2:-3:-12:-2:-0.554199:-0.822754:0.207031:13.875:4.5625:-7.0625
1562063271739273:-7:4:5:-7:1:4:6:2:-0.553711:-0.844238:0.203613:-2.8125:4.1875:-7.9375
1562063271800280:-4:-4:-13:12:-8:-8:-4:-2:-0.545898:-0.837402:0.20459:-2.0625:1.5625:-6.875
1562063271845284:2:1:5:9:7:-1:0:-4:-0.55127:-0.845215:0.187988:-0.125:0.3125:-4.5
1562063271896289:0:-1:4:36:-10:-1:-2:-5:-0.548828:-0.844727:0.209961:3.0625:-1.0625:-2.875
1562063271942294:-2:-3:-2:16:-8:-1:-1:-2:-0.540039:-0.859375:0.197266:7.1875:-4.5:2.375
1562063272002300:3:-2:-10:-114:2:-2:2:1:-0.563965:-0.809082:0.182617:9.3125:-21.8125:4.0625
1562063272043304:-1:3:0:-13:-8:0:1:1:-0.541992:-0.783203:0.241211:29.9375:-11.3125:3.25
1562063272102310:-1:0:-2:-19:11:0:-1:-2:-0.538086:-0.782715:0.263672:-4:-17.9375:-4.625
1562063272144314:-2:1:1:-9:-1:-1:-1:-2:-0.515137:-0.804688:0.270508:10.5625:-0.625:-9.1875
1562063272204320:-2:-1:0:9:10:4:-2:0:-0.51123:-0.849609:0.250977:-8.75:2.875:-8.1875
1562063272256325:-1:-1:1:-7:-3:-4:-2:-2:-0.522949:-0.862793:0.242676:1.8125:3.875:-2.5
1562063272302330:0:2:0:6:5:0:0:1:-0.521484:-0.840332:0.237305:-2.125:2.0625:0.3125
1562063272357335:-1:0:0:2:4:0:-1:0:-0.523438:-0.836426:0.246094:2.4375:-0.125:0.1875
1562063272402340:-2:0:2:-2:-2:-2:1:0:-0.520996:-0.835449:0.245605:1.5625:-0.5625:-0.875
1562063272444344:0:-1:-1:-18:-12:-3:0:-1:-0.516113:-0.837402:0.251953:-0.25:-0.75:-1.625
1562063272504350:-1:1:0:-3:-1:-2:-3:-2:-0.513184:-0.856445:0.245117:-1.25:-1.1875:0.375
1562063272556355:0:1:-1:-1:-2:0:1:1:-0.51416:-0.836426:0.254883:1.8125:0.9375:0.5
1562063272602360:0:1:3:24:-3:-2:-3:-2:-0.52002:-0.838867:0.248535:0.5625:-0.0625:0.1875
1562063272662366:-1:-1:-5:-2:-1:2:0:-1:-0.519043:-0.836914:0.254395:2.6875:0.5:-1
1562063272707370:1:1:15:-2:19:3:1:0:-0.515137:-0.841309:0.250977:0.0625:-0.625:-1.375
1562063272760376:-1:-1:-5:-1:-1:1:1:-3:-0.516602:-0.842773:0.242188:-0.25:1.4375:-0.9375
1562063272804380:0:1:1:-5:-3:-1:0:-1:-0.516113:-0.833496:0.250977:0.4375:1.1875:-0.75
1562063272857385:-2:0:-2:-1:2:1:-2:0:-0.513672:-0.840332:0.255859:-0.375:-0.0625:-0.5
1562063272905390:0:-1:-2:-1:-1:-2:-1:0:-0.51123:-0.844238:0.250977:1.875:0.8125:0.0625
1562063272962396:-2:-2:-2:-3:-1:2:0:-1:-0.513184:-0.838379:0.254883:0.0625:0.875:-0.375
1562063273007400:-2:-4:-8:6:1:-1:-1:-2:-0.514648:-0.845703:0.255371:0.1875:0.3125:0.6875
1562063273060406:-2:0:0:1:-1:1:-1:-1:-0.516602:-0.834961:0.254395:-0.1875:-0.3125:0.5625
1562063273104410:-2:1:0:13:14:1:0:0:-0.51416:-0.839844:0.25293:1.625:0.625:0
1562063273164416:-2:-2:-4:-2:-5:-1:1:-1:-0.513184:-0.836426:0.25:-0.5:0.6875:-0.375
1562063273216421:-2:-4:-7:-6:-4:-2:-1:0:-0.515137:-0.846191:0.249023:1.1875:-0.25:-0.1875
1562063273264426:0:0:-2:3:2:1:1:1:-0.518066:-0.836914:0.251465:-0.9375:-0.625:-0.5625
1562063273307430:0:0:1:-16:-2:-3:-1:1:-0.51416:-0.851562:0.26123:0:-0.5:-0.8125
1562063273367436:0:-1:-5:-9:-1:0:1:0:-0.51416:-0.841797:0.243652:0.25:-0.5625:-0.1875
1562063273404440:-1:-1:2:-4:1:3:3:1:-0.513184:-0.844238:0.258301:-1.9375:0.3125:-0.4375
1562063273464446:-1:-2:1:2:-10:-3:-1:1:-0.511719:-0.842773:0.253418:-0.3125:0.1875:0.0625
1562063273517451:-2:-3:-6:12:-4:-4:-3:-4:-0.513672:-0.842773:0.245605:-0.3125:0.3125:-0.125
1562063273568456:-2:-2:1:26:3:-2:-2:-2:-0.510742:-0.853516:0.25293:-1:0.75:0.25
1562063273606460:-1:-1:-1:3:4:3:0:-1:-0.515137:-0.839844:0.249023:0.1875:0.3125:0.75
1562063273667466:-3:-3:-2:-2:5:2:2:-1:-0.51416:-0.847168:0.249023:-2.625:0.375:0.5625
1562063273719471:-1:-1:2:4:-3:-2:-2:0:-0.518066:-0.837402:0.241699:-0.4375:-0.25:0.6875
1562063273765476:0:1:-2:6:-3:-1:-1:-1:-0.513672:-0.852539:0.254395:-0.6875:0.4375:0.1875
1562063273810481:1:-1:0:4:-2:-1:1:-7:-0.516602:-0.839844:0.250977:0.125:0.5:-0.1875
1562063273870487:0:0:2:-2:0:1:1:2:-0.512207:-0.851562:0.247559:-1.125:-0.125:0
1562063273921492:-3:-9:-1:-6:-2:-3:-3:-1:-0.508789:-0.838379:0.243652:-1.375:-0.1875:0.1875
1562063273967496:0:1:0:1:-2:0:-1:0:-0.512207:-0.847168:0.243164:-3.125:0:-0.0625
1562063274019501:3:2:1:-9:2:0:-1:0:-0.51416:-0.84375:0.245605:-0.0625:-0.25:0.375
1562063274068506:-1:-2:-1:6:-2:-3:0:-1:-0.509277:-0.850586:0.244141:-0.875:0.4375:-0.125
1562063274125512:1:1:1:-3:0:1:0:-2:-0.512207:-0.841797:0.244141:-0.1875:0.1875:0
1562063274169516:1:0:-1:3:-1:-1:0:1:-0.513672:-0.848145:0.244141:-0.3125:0.125:-0.1875
1562063274222522:-2:0:1:7:1:0:1:1:-0.510254:-0.840332:0.237793:-0.0625:0:-0.875
1562063274266526:1:2:4:6:-3:-3:-3:-1:-0.516113:-0.847168:0.244141:1.875:0.375:0.25
1562063274319531:-1:-3:-3:-16:1:0:0:-1:-0.513672:-0.852051:0.235352:0.125:0.625:0.5
1562063274367536:0:-2:-1:-5:-1:-1:0:-1:-0.511719:-0.841309:0.244141:1.125:0.25:1.125
1562063274427542:-1:0:0:3:-1:0:-1:-1:-0.515625:-0.847168:0.247559:1.25:0.0625:1.3125
1562063274470547:-1:-2:-5:-6:5:4:1:2:-0.512207:-0.841797:0.246582:0:0.6875:1.375
1562063274530553:1:0:2:-1:4:1:1:2:-0.518066:-0.836914:0.249023:-2.25:0.0625:0.75
1562063274566556:-1:0:1:11:-2:-2:0:0:-0.52002:-0.840332:0.243652:3:0.8125:1.125
1562063274627562:-4:1:3:-12:2:0:-1:0:-0.516113:-0.843262:0.244629:-2:-0.3125:0.875
1562063274672567:-1:-3:-4:-5:-5:0:1:-1:-0.514648:-0.84375:0.241699:2.6875:0.5:1.75
1562063274725572:1:-2:0:2:2:1:-1:-2:-0.516602:-0.835938:0.242188:-0.375:0:1.5625
1562063274784578:0:1:1:2:-8:-3:-1:0:-0.523438:-0.843262:0.241699:2.125:0.625:1.375
1562063274829582:-4:-2:-2:-10:-2:-2:-2:-3:-0.525391:-0.833984:0.241211:-0.25:-0.625:0.9375
1562063274869586:-1:1:1:-1:0:0:-1:-1:-0.524902:-0.838867:0.250488:0.1875:-1:0.3125
1562063274930593:-1:-2:-3:2:-1:-1:-1:-1:-0.521484:-0.842285:0.241211:-0.75:-0.875:0.5
1562063274972597:0:-2:-2:-11:3:-1:0:1:-0.522949:-0.838379:0.253418:-0.1875:-0.375:0.5625
1562063275032603:1:1:2:-3:1:1:0:0:-0.519531:-0.845215:0.244141:0.0625:-0.25:0.625
1562063275084608:-2:-2:-4:-5:2:1:2:0:-0.523926:-0.837891:0.252441:-0.25:0.5625:0.125
1562063275130613:1:-1:0:-3:-1:-1:-2:-2:-0.52002:-0.838867:0.240234:0.875:0.5:-0.125
1562063275182618:0:1:-2:1:-4:0:-3:-1:-0.520996:-0.841797:0.240723:-0.1875:-0.0625:0.375
1562063275230623:-1:-1:1:6:1:1:0:0:-0.523926:-0.832031:0.24707:0.5:-0.3125:-0.125
1562063275288628:1:0:-5:-3:-5:-2:-2:-1:-0.521484:-0.838867:0.253906:-1:-0.125:-0.25
1562063275333633:1:0:-1:13:-1:0:-2:0:-0.522949:-0.833008:0.249023:0.8125:-0.25:0.25
1562063275385638:-3:-5:-4:-2:0:-2:-1:-2:-0.521484:-0.847168:0.251953:-0.4375:-0.125:0.3125
1562063275429642:0:0:-1:1:-4:-3:-3:0:-0.522461:-0.839355:0.246582:-0.1875:-0.0625:0
1562063275490649:1:0:3:-4:-4:2:1:0:-0.525391:-0.84082:0.246582:0.1875:0.1875:0.25
1562063275542654:-1:-1:0:-5:2:-1:0:0:-0.524902:-0.836914:0.25293:-0.5:-0.3125:-0.0625
1562063275587658:-1:-2:-5:-12:-3:-1:2:1:-0.519531:-0.839844:0.24707:-0.25:-0.5:0.0625
1562063275632663:-2:-2:-2:14:-4:-3:-2:-5:-0.521973:-0.843262:0.248047:0.1875:0.1875:0
1562063275685668:0:2:0:5:4:0:-1:-1:-0.521484:-0.837402:0.243652:-0.125:-0.125:0.3125
1562063275732673:0:-1:-1:6:-5:1:-1:1:-0.523926:-0.834473:0.249023:-0.125:0:0
1562063275792679:-2:-2:-3:-7:-1:-2:-1:-1:-0.519531:-0.84375:0.241699:0:-0.4375:-0.0625
1562063275835683:-1:0:-2:1:8:3:1:0:-0.519531:-0.833496:0.247559:-0.3125:-0.375:0.0625
1562063275886688:0:-1:-1:-5:-1:-2:-2:0:-0.518555:-0.846191:0.25:0.3125:0:0.25
1562063275932693:3:-1:0:-10:2:0:1:-1:-0.52002:-0.836426:0.249023:-0.0625:-0.125:0
1562063275993699:-2:-2:-3:5:-1:-2:-4:-2:-0.522461:-0.838867:0.248047:0.0625:-0.1875:-0.1875
1562063276044704:-3:-1:-4:0:-6:-2:-1:-1:-0.521973:-0.842773:0.243164:0.25:0.125:0.0625
1562063276092709:0:0:1:2:0:1:-1:-1:-0.518066:-0.838379:0.251465:0.125:-0.125:0.1875
1562063276135713:1:0:3:-4:1:0:-1:1:-0.523438:-0.840332:0.250977:-0.25:-0.5625:0.75
1562063276194719:1:-2:-1:4:-1:-1:-2:-1:-0.520508:-0.841309:0.249023:-0.1875:-0.1875:0.1875
1562063276246724:-1:0:-3:-8:5:0:-2:0:-0.523926:-0.833984:0.253906:-0.375:-0.125:-0.5
1562063276292729:-5:-1:3:4:0:0:1:0:-0.520508:-0.836426:0.246582:-0.5625:-0.75:-0.25
1562063276344734:-1:0:2:5:1:-1:-2:-1:-0.520996:-0.842285:0.244141:-1.1875:0.1875:-0.1875
1562063276392739:-1:-1:-2:-1:5:1:-1:-2:-0.522461:-0.847168:0.248047:-0.5625:0.1875:0.4375
1562063276449744:0:-1:1:-5:-2:-1:-2:-1:-0.525879:-0.833008:0.240723:0.5625:0.6875:0
1562063276494749:2:1:1:0:0:0:-1:1:-0.522461:-0.84668:0.248535:-0.625:-0.125:-0.1875
1562063276546754:8:-4:-6:-5:-2:1:3:-2:-0.520996:-0.837891:0.247559:0.1875:0.1875:-0.1875
1562063276592759:-2:1:-6:-2:-1:-1:-2:-1:-0.520996:-0.844727:0.247559:1.6875:0.4375:0
1562063276652765:0:0:1:-1:-2:1:-1:-1:-0.523926:-0.833008:0.248047:0.4375:0.125:-0.3125
1562063276697769:-1:1:2:8:-1:-2:-3:-1:-0.524902:-0.844727:0.247559:0.375:0.125:-0.5
1562063276749774:-2:-2:-2:-8:-5:0:-2:-3:-0.518555:-0.842285:0.250977:1.3125:0.5:-0.1875
1562063276795779:1:0:0:-2:1:1:1:0:-0.520996:-0.84375:0.25293:-0.6875:-0.4375:0.25
1562063276854785:0:0:4:9:2:-1:-1:-2:-0.522949:-0.840332:0.248047:0.5625:-0.3125:0.25
1562063276894789:0:-2:-3:5:-2:-1:-1:1:-0.525391:-0.839844:0.245117:-1:-0.125:-0.1875
1562063276955795:18:2:-3:0:3:-6:-48:5:-0.520996:-0.839844:0.253906:0.125:-0.25:-0.0625
1562063276998799:18:-9:-4:-8:-5:-2:1:-17:-0.521484:-0.819336:0.275879:-6.5:0.875:2.5
1562063277057805:-2:19:1:3:1:-6:-91:11:-0.518066:-0.817871:0.247559:-13.8125:10.25:-1.875
1562063277094809:80:15:6:4:10:7:-18:-66:-0.54834:-0.92627:0.162598:-9.625:11.375:-5.375
1562063277155815:-128:-45:2:-4:-7:-20:-84:40:-0.458008:-0.953125:0.174805:-28.75:-26.625:31.125
1562063277207820:-59:-49:-17:-12:-6:6:-5:-128:-0.55127:-0.881348:0.265137:15.3125:-15.5:43.0625
1562063277258825:-56:22:14:13:11:8:-19:24:-0.566895:-0.748047:0.25:-12.875:-12.375:17.5
1562063277312831:-66:-14:-10:7:-1:0:34:28:-0.598145:-0.776855:0.254395:-11.9375:-9.4375:5
1562063277357835:44:26:8:-3:-3:-2:4:42:-0.552734:-0.821289:0.222168:11.4375:-0.375:7.1875
1562063277394839:4:5:5:1:2:-2:4:10:-0.61084:-0.725586:0.222168:-5.625:-3.1875:-4.375
1562063277455845:2:0:-8:-71:1:0:1:7:-0.551758:-0.800293:0.271973:15.5:14.8125:-11.125
1562063277507850:8:6:13:-6:-8:0:0:6:-0.545898:-0.813965:0.233887:-10.4375:15.125:-8.9375
1562063277559855:1:1:5:36:11:1:1:3:-0.586914:-0.843262:0.176758:5.25:4.5:-2.625
1562063277612861:-5:-1:6:87:-2:-10:-6:-3:-0.583496:-0.84375:0.197266:16.5625:1.625:-0.625
1562063277668866:0:0:5:33:0:3:3:1:-0.584961:-0.811035:0.162109:-7.0625:-12.625:-5
1562063277708870:1:0:-6:-23:-20:3:-1:2:-0.543457:-0.880859:0.260254:23.1875:-6.375:-5.125
1562063277765876:0:-1:3:1:-1:1:-1:-1:-0.543457:-0.833008:0.251465:-11.8125:-8.4375:-8
1562063277813881:-2:-3:-3:-3:-7:-2:-2:-2:-0.535156:-0.844727:0.250977:15.9375:2.5625:-7.5
1562063277861886:-1:-2:-1:14:5:-2:0:-1:-0.532715:-0.872559:0.254395:-11.6875:1.375:-3.875
1562063277911891:-1:-1:-8:-8:1:-2:-1:-1:-0.542969:-0.835449:0.238281:6.9375:3.25:-1.0625
1562063277959895:-2:-1:-4:2:4:2:0:-2:-0.537109:-0.839355:0.253418:-1.375:1.5:-0.5
1562063278009900:0:0:-1:-2:4:2:0:-3:-0.541016:-0.822754:0.24707:3.125:0.9375:-1.375
1562063278065906:-1:-1:-1:-25:-4:-3:0:0:-0.540039:-0.83252:0.251953:0.125:-0.6875:-0.9375
1562063278114911:2:2:7:-7:-4:1:2:-1:-0.537109:-0.824219:0.249023:1.375:0.625:-1.25
1562063278162916:-1:-2:-5:0:-1:0:0:-2:-0.535645:-0.834961:0.238281:-0.875:-0.6875:-0.0625
1562063278212921:0:0:-1:11:-1:-2:0:0:-0.538086:-0.82373:0.253418:0.75:0.375:-0.1875
1562063278260926:-1:0:-1:-1:1:0:-2:0:-0.537598:-0.833008:0.23877:-5.125:-0.5625:-0.1875
1562063278309930:-1:-2:1:14:-1:-5:-2:-1:-0.537109:-0.842773:0.244629:0:0.5625:0
1562063278364936:-1:0:-2:-6:-1:1:0:0:-0.534668:-0.831543:0.241699:-2.25:0.25:-0.25
1562063278413941:0:-1:-2:-21:-6:-1:0:-1:-0.536133:-0.84082:0.23584:-0.8125:0.375:-0.125
1562063278462946:0:-1:0:22:-5:-1:-2:-2:-0.537109:-0.830078:0.243652:-1.5625:-0.0625:0.25
1562063278512951:1:-1:-2:-5:-4:-1:1:-1:-0.538086:-0.837891:0.248047:-1.125:0.3125:0.4375
1562063278562956:1:3:0:-2:6:1:-2:-1:-0.539551:-0.825684:0.241699:-0.875:0.1875:-0.0625
1562063278618961:-2:-3:-3:7:6:0:-2:-2:-0.539062:-0.833496:0.243164:-1.625:0.1875:-0.0625
1562063278665966:0:0:2:1:0:-1:-1:-2:-0.540527:-0.83252:0.242188:1:0.875:0.125
1562063278714971:0:0:2:-1:-5:-2:0:2:-0.543945:-0.833984:0.241211:-1.375:0.125:-0.75
1562063278761976:0:1:-1:1:-1:0:2:1:-0.537109:-0.822754:0.246094:0.5:0:-0.625
1562063278812981:0:0:0:-16:-3:-1:-1:0:-0.52832:-0.842285:0.236328:0.3125:0.625:-0.25
1562063278871987:-1:0:-2:-5:1:0:-1:-1:-0.533691:-0.827148:0.248047:2.3125:1.1875:1.0625
1562063278922992:-1:0:-4:-16:-1:-4:-2:-1:-0.538574:-0.839844:0.238281:-0.0625:1.4375:0.4375
1562063278964996:1:-2:1:-4:1:1:0:0:-0.539551:-0.819336:0.229492:1.4375:0.1875:0.125
1562063279015001:0:0:2:10:-4:-2:1:-1:-0.536133:-0.837891:0.230469:0.25:-0.25:-0.5625
1562063279075007:-1:-1:0:-7:0:-1:-1:2:-0.54248:-0.831055:0.239746:0.5:-1.5625:-0.5625
1562063279122012:0:1:3:-1:0:-3:-2:-3:-0.539551:-0.834961:0.243652:-0.5:-1.1875:-0.75
1562063279173017:-2:-2:-8:-3:-3:-1:0:-2:-0.535156:-0.830566:0.244141:0.25:-0.9375:-0.625
1562063279224022:-1:-2:-4:-2:-2:1:0:-1:-0.532715:-0.835938:0.239258:0.9375:-0.1875:0.6875
1562063279265026:-1:-2:-1:-1:-7:-3:0:-1:-0.536133:-0.824219:0.244629:1.4375:0.0625:0
1562063279315031:1:1:1:-5:5:1:0:1:-0.532715:-0.833984:0.245605:-0.4375:-0.125:-0.125
1562063279374037:1:0:-2:-5:-3:-1:1:0:-0.53418:-0.830566:0.248047:0.0625:-0.9375:-0.3125
1562063279423042:-2:0:-1:-13:2:1:-1:0:-0.533691:-0.847168:0.244141:-0.375:-0.0625:-0.25
1562063279465046:0:0:0:-7:-9:-2:0:0:-0.530273:-0.83252:0.245117:1.3125:-0.0625:0.3125
1562063279524052:-1:-1:-6:-1:-2:0:-2:2:-0.541016:-0.832031:0.245605:-0.4375:-0.3125:0
1562063279565056:-1:0:-1:5:3:-2:-4:-2:-0.535156:-0.833984:0.242188:-0.125:0.125:-0.125
1562063279626062:-1:0:1:-17:-3:0:0:0:-0.531738:-0.832031:0.235352:0.3125:-0.9375:-0.125
1562063279675067:-1:-1:0:4:3:-1:-3:-1:-0.52832:-0.83252:0.248047:-0.75:-0.6875:-0.0625
1562063279727072:0:3:2:-1:1:1:-1:0:-0.527832:-0.82959:0.25:0.25:-0.875:0.375
1562063279764076:-2:-1:1:0:4:1:0:1:-0.535645:-0.830078:0.242676:-0.0625:-0.3125:-0.0625
1562063279824082:-2:0:0:6:-1:-2:-1:0:-0.530273:-0.836426:0.245605:-0.125:0:-0.0625
1562063279878087:0:1:0:-8:1:-1:0:0:-0.537598:-0.828125:0.248047:0.625:-0.5:-0.75
1562063279925092:0:0:1:-2:2:0:1:-1:-0.536621:-0.833496:0.244141:-1.5625:-0.8125:-0.875
1562063279974097:-2:-2:-2:-4:-2:1:0:0:-0.522461:-0.838379:0.244629:0:-0.75:-0.25
1562063280026102:-1:-3:-5:-10:3:-1:-1:-3:-0.534668:-0.834961:0.244629:0.125:-0.0625:0.0625
1562063280081108:2:-1:-4:1:2:0:-1:-1:-0.534668:-0.834961:0.245605:-0.0625:-0.625:0.0625
1562063280124112:0:1:-3:-7:9:7:-1:1:-0.527832:-0.84082:0.250488:-0.5625:-0.5625:-0.4375
1562063280185118:-3:-2:0:-3:-4:0:-1:-3:-0.529297:-0.840332:0.245117:0.5:-0.875:0.25
1562063280229122:0:1:-1:3:-3:0:0:1:-0.523926:-0.837891:0.251953:-0.625:-0.4375:0.3125
1562063280285128:-1:-2:-2:-15:-6:-2:-3:-2:-0.529785:-0.83252:0.242188:1:0.0625:0.9375
1562063280335133:-3:-3:-1:-8:-3:-3:0:-2:-0.534668:-0.828613:0.249512:-0.25:-0.0625:0.375
1562063280387138:1:-1:1:0:3:-1:1:-1:-0.532715:-0.834473:0.245117:1:0.375:0.625
1562063280428142:0:0:-6:-1:-4:-1:-2:-1:-0.539551:-0.835449:0.253906:0.8125:0.125:0.4375
1562063280487148:-1:-2:0:5:1:0:-2:0:-0.532227:-0.828125:0.252441:-0.375:0.25:0
1562063280537153:0:-1:-2:1:-1:-2:0:-1:-0.528809:-0.842285:0.244141:-0.125:0.4375:0.3125
1562063280588158:0:0:0:-10:0:-1:-2:-1:-0.529297:-0.83252:0.245117:-0.625:0.3125:-0.1875
1562063280627162:1:0:-2:-4:0:-2:-1:-2:-0.536621:-0.834473:0.246094:0.9375:0.25:-0.125
1562063280688168:1:0:2:4:-2:-2:1:-1:-0.524902:-0.84668:0.241699:-0.125:-0.125:0.4375
1562063280740173:2:-1:0:-4:1:4:3:1:-0.533203:-0.833984:0.246582:0.6875:-0.5:0.875
1562063280788178:-2:-3:-3:4:-2:0:0:-1:-0.530762:-0.836426:0.245605:0.0625:-0.625:1.0625
1562063280838183:1:-1:1:-2:-4:-1:-2:0:-0.530273:-0.830078:0.249512:1.5625:-0.5:1.25
1562063280890188:-1:-1:-1:-1:2:0:-1:-1:-0.530273:-0.835449:0.250488:-1:-0.125:0.5625
1562063280927192:-4:-1:-1:-6:-4:1:-1:-1:-0.533203:-0.82959:0.248047:1.0625:0.4375:0.875
1562063280987198:0:-1:1:5:-2:0:0:-1:-0.535156:-0.825195:0.247559:-0.75:0.0625:-0.0625
1562063281041204:-2:-1:-2:-3:-1:1:1:-2:-0.535645:-0.833984:0.256348:0.625:0.25:0.4375
1562063281088208:0:0:0:-8:-2:-2:0:1:-0.530762:-0.83252:0.249512:-0.25:0.125:-0.5
1562063281137213:1:1:3:8:3:2:0:2:-0.530273:-0.832031:0.247559:-1.5625:-0.4375:-0.125
1562063281189218:-1:1:6:1:0:-1:0:2:-0.535645:-0.830566:0.243164:0.875:-0.375:0.3125
1562063281242224:1:1:5:2:0:-1:0:-2:-0.535156:-0.831543:0.244141:-1.125:-0.1875:0.4375
1562063281287228:1:-4:4:0:-3:-3:-3:-4:-0.532715:-0.825195:0.257324:1.0625:0.25:0.5625
1562063281341234:-3:-3:-2:1:2:1:-1:-4:-0.532715:-0.830078:0.254395:0.875:-0.375:0.9375
1562063281391239:-2:-3:-3:4:-3:-1:2:-1:-0.532227:-0.826172:0.253418:3.75:0.375:0.625
1562063281446244:1:2:2:-1:1:0:1:1:-0.533203:-0.830566:0.257324:1.6875:0.375:0.625
1562063281489248:-1:1:2:2:2:2:1:0:-0.537598:-0.82666:0.260742:0.1875:-0.1875:0.5
1562063281527252:-1:-2:-6:-5:1:1:-1:0:-0.536133:-0.822754:0.255371:0.375:0:-0.0625
1562063281588258:0:-3:-1:3:-1:-2:-1:0:-0.537109:-0.825195:0.253906:-0.1875:-0.25:-0.0625
1562063281647264:1:0:-1:-1:0:-1:-2:-1:-0.53418:-0.833496:0.256348:0.1875:-1:0.75
1562063281691269:0:-1:-2:-14:-5:0:-1:-2:-0.537598:-0.818359:0.250977:0.75:-1.0625:0.9375
1562063281751275:7:-5:-3:-5:-1:0:-1:-3:-0.536621:-0.821777:0.250488:-1.3125:-1.3125:-0.125
1562063281790278:9:16:0:3:-2:-7:-14:-57:-0.54248:-0.818359:0.261719:-6.1875:-1.25:1.875
1562063281849284:75:-8:-7:-2:1:-1:-9:-10:-0.516113:-0.829102:0.255859:-5.625:8.5:-3.6875
1562063281890288:-25:-21:-5:-2:0:-2:-26:-22:-0.54541:-0.844238:0.196777:-11.125:4.5625:-1.25
1562063281950294:-2:13:-2:-2:-2:-3:-36:65:-0.538086:-0.844238:0.226562:10:1.5:10.25
1562063281999299:35:-7:4:0:-3:-4:-82:-62:-0.538574:-0.810059:0.244629:-2.6875:-0.125:14.625
1562063282054305:-44:-14:3:3:1:4:34:31:-0.542969:-0.816406:0.234375:1.4375:-0.125:12.625
1562063282090308:-117:-36:-9:-12:-7:2:56:10:-0.575684:-0.804688:0.219238:-7.375:-2.875:11.1875
1562063282150314:3:-25:-20:-26:-21:-13:-95:0:-0.578125:-0.810059:0.234375:-7.25:-1.625:9.375
1562063282203320:49:27:20:12:13:4:35:8:-0.600586:-0.786621:0.241211:-8.875:-4:4.875
1562063282250324:24:-4:11:-1:-6:-15:-121:67:-0.572266:-0.873535:0.242188:-1.25:-0.125:3.125
1562063282293329:-6:-23:4:-1:0:0:-3:-72:-0.597168:-0.767578:0.216309:-5.0625:-1.3125:0.8125
1562063282353335:8:-12:-1:-1:-4:-5:6:5:-0.589355:-0.799316:0.226562:5.4375:1.875:1.5
1562063282406340:-6:2:-3:1:-5:-3:-16:3:-0.570801:-0.810059:0.217285:-0.3125:-0.5625:-1.9375
1562063282449344:-1:0:-6:14:-8:-5:-16:-1:-0.584961:-0.812012:0.243652:2.25:4.75:-15.375
1562063282502350:0:-2:-1:6:71:1:-2:0:-0.539551:-0.840332:0.225098:-10.4375:9.6875:-2.375
1562063282553355:1:1:-4:-25:17:1:3:1:-0.566406:-0.864746:0.15918:7.3125:1.5:3.6875
1562063282609360:-3:-4:-8:-17:-11:-3:-1:-2:-0.608398:-0.84082:0.166992:18.5625:-8.0625:4.9375
1562063282652365:0:-3:-2:-23:-3:0:-2:-2:-0.604004:-0.773438:0.234863:17.0625:-25.125:-1.6875
1562063282706370:1:0:1:4:6:2:6:15:-0.544922:-0.760742:0.306152:-8.25:-15.375:-13.5
1562063282753375:1:2:4:4:-6:4:-1:-3:-0.50293:-0.919922:0.304688:-11.1875:0.875:-14.375
1562063282812381:2:0:1:-2:4:2:3:4:-0.544434:-0.814453:0.243652:-1.5625:5.0625:0
1562063282862386:0:-1:-2:-5:-12:0:-2:0:-0.546387:-0.847168:0.245605:-1.1875:2.0625:3.0625
1562063282913391:1:-1:-2:2:-7:-4:-2:-1:-0.554688:-0.788574:0.259766:1.25:0.5:0.75
1562063282952395:-1:-3:-3:-11:2:0:1:0:-0.547852:-0.815918:0.256836:-2.75:-0.5625:-1.9375
1562063283012401:-1:0:1:-13:3:-3:1:-1:-0.536621:-0.828613:0.265137:1.9375:-0.75:-2.3125
1562063283065406:-1:-1:-5:3:-2:-2:0:0:-0.541504:-0.828613:0.265625:0.875:-1.125:-1.625
1562063283113411:-1:0:0:-2:-6:-1:-1:-2:-0.546387:-0.817383:0.258789:0.25:-0.1875:-0.9375
1562063283162416:-1:-2:-3:-7:5:1:3:0:-0.54541:-0.825684:0.266602:0:-0.625:-1
1562063283214421:-3:-2:-1:1:-14:-5:-2:-3:-0.539062:-0.825684:0.259277:-1.5:-1.75:-1.9375
1562063283252425:-3:-4:-3:-1:3:1:1:2:-0.538086:-0.82959:0.262695:-1.875:-1.5:-1.375
1562063283312431:0:0:1:-4:2:2:1:-1:-0.534668:-0.830078:0.261719:0.375:0.125:-0.625
1562063283365436:-1:0:2:0:-4:-3:-3:1:-0.531738:-0.830566:0.264648:-0.3125:0.5625:0
1562063283415441:0:0:-1:5:2:2:1:0:-0.539062:-0.820312:0.255859:0.6875:1.625:0.375
1562063283454445:-3:-2:-2:-7:-2:-1:-1:-1:-0.536133:-0.828613:0.258301:-0.75:0.4375:0.5625
1562063283514451:0:1:-2:-2:1:-1:-2:-1:-0.537598:-0.82666:0.262207:0:0:0.4375
1562063283568456:0:0:0:3:-5:-4:-3:-1:-0.536133:-0.824707:0.259277:-0.375:-0.375:0.1875
