1562063441351908:0:1:1:-1:-3:0:3:-5:-0.228516:-0.999512:-0.0585938:0.0625:-0.5:0.9375
1562063441405908:-2:1:1:-6:-2:-5:3:-3:-0.218262:-0.99707:-0.0537109:0.6875:-0.25:0.75
1562063441452908:0:1:1:-4:1:0:4:-4:-0.217773:-0.996094:-0.0527344:0.4375:0.0625:0.875
1562063441502908:0:-2:-1:4:-1:4:-5:2:-0.220215:-0.994629:-0.0541992:-0.0625:-0.25:1.125
1562063441552908:0:0:5:12:-1:-7:-7:1:-0.225586:-0.999023:-0.0473633:0.625:-0.1875:0.875
1562063441608908:0:0:-1:1:-7:-6:9:7:-0.219238:-0.98877:-0.0507812:0.4375:0.125:0.25
1562063441655908:0:1:-2:5:0:3:0:-3:-0.225586:-0.992188:-0.0566406:0.9375:0.125:-0.5
1562063441704908:-2:-2:-1:-15:0:2:-12:-26:-0.225586:-0.99707:-0.0546875:-0.1875:-1.0625:-0.6875
1562063441753908:0:1:-1:-6:-1:4:2:2:-0.225586:-0.999512:-0.0556641:0.125:-0.8125:-0.1875
1562063441801908:-1:-2:2:11:4:3:8:1:-0.21875:-0.998047:-0.0546875:-0.4375:-1.4375:0.125
1562063441853908:0:1:-1:-7:2:0:-6:-9:-0.219727:-0.996582:-0.0541992:0.125:-0.625:-0.0625
1562063441908908:1:1:-1:-10:-6:-5:6:13:-0.224121:-0.997559:-0.0527344:0.875:-0.9375:0.0625
1562063441955908:-1:-1:1:-8:1:9:0:1:-0.228516:-0.993652:-0.0454102:0.75:-0.5625:0.0625
1562063442005908:2:1:-1:-3:5:4:6:6:-0.220215:-0.995117:-0.0429688:0.3125:-0.625:-0.1875
1562063442053908:-2:-2:0:-4:-2:1:-3:4:-0.22168:-0.99707:-0.0561523:1.0625:-0.8125:-0.3125
1562063442111908:-2:-1:-3:24:-4:-4:-5:-7:-0.218262:-0.998535:-0.0429688:1.125:-1.1875:-0.0625
1562063442154908:0:0:1:4:1:-1:4:-1:-0.220215:-0.995117:-0.0454102:0.625:-1.375:-0.1875
1562063442208908:1:-1:1:9:8:4:-2:-3:-0.21582:-0.993652:-0.0419922:0.9375:-0.75:-1.125
1562063442258908:-2:-2:-6:-16:-3:-2:3:16:-0.222656:-0.993164:-0.0444336:1:-0.9375:-1.25
1562063442304908:2:0:-4:-14:2:0:3:2:-0.219238:-0.998535:-0.0405273:1.5:0.0625:-0.9375
1562063442365908:23:-2:2:-4:1:3:-3:-1:-0.213867:-0.997559:-0.0327148:2.75:0.625:-0.5625
1562063442415908:1:2:0:0:1:0:-9:-19:-0.214355:-0.992188:-0.0317383:3.3125:3.5:-0.125
1562063442454908:-10:-7:-10:4:4:0:-9:0:-0.213867:-0.99707:-0.0351562:3.3125:5.3125:-1.625
1562063442514908:-8:-5:3:0:-2:3:1:1:-0.219238:-0.990723:-0.0385742:0.875:6.5:-2.3125
1562063442568908:-9:-13:-6:-2:-3:-5:7:0:-0.215332:-1.00098:-0.046875:1.1875:3.5:-2.375
1562063442614908:-4:0:2:0:0:-2:0:-1:-0.208008:-1:-0.0322266:2.1875:1.5625:-1.1875
1562063442664908:-2:0:3:1:-2:-1:17:1:-0.202637:-1.00391:-0.0366211:2.5625:1.625:-1.125
1562063442715908:0:-2:-3:-1:-1:-2:-13:-6:-0.208008:-0.997559:-0.0297852:2.625:2:0
1562063442754908:-4:-1:2:12:6:8:0:-39:-0.213379:-1.00244:-0.0288086:2.1875:1.875:0.5
1562063442815908:-1:1:2:-2:-2:2:3:12:-0.208984:-0.998047:-0.0229492:1.4375:0.3125:1.1875
1562063442867908:-2:-1:0:1:3:5:-5:2:-0.20752:-0.999023:-0.0161133:1.6875:1.5:1.3125
1562063442914908:-2:-2:-4:-12:-8:-8:-15:11:-0.213379:-0.999023:-0.0219727:2:1.8125:1.5
1562063442964908:-2:0:1:-9:-1:-3:6:-1:-0.209961:-0.994629:-0.0195312:1.5625:1.875:1.75
1562063443016908:0:0:-3:-23:-8:-6:-1:3:-0.214355:-1.00195:-0.0209961:0.5:0.6875:1.5625
1562063443070908:0:-1:-2:3:-2:-2:5:-4:-0.214355:-0.995605:-0.0234375:-0.5:-0.4375:1.1875
1562063443114908:-1:0:-2:2:1:-1:9:7:-0.219727:-0.997559:-0.0239258:0:-0.0625:0.9375
1562063443167908:0:0:0:-15:-8:-2:-6:10:-0.217773:-0.996582:-0.0229492:-1.1875:-0.625:0.375
1562063443218908:0:1:1:4:-4:2:-3:-16:-0.219238:-0.998047:-0.0185547:-0.4375:-0.4375:0.3125
1562063443273908:0:0:2:15:-1:-4:-4:2:-0.214844:-0.999512:-0.0209961:-1.5625:-0.875:0.5625
1562063443317908:0:-1:-3:-5:-3:-4:-6:9:-0.216797:-0.991699:-0.0249023:-1.4375:-0.5:0.25
1562063443370908:-1:1:2:0:7:5:1:2:-0.220703:-0.997559:-0.0239258:-1.25:0.125:0.25
1562063443414908:-2:0:-2:-6:-3:-5:0:0:-0.220703:-0.99707:-0.0234375:-0.9375:0.125:0.375
1562063443474908:1:2:-1:-6:1:3:9:4:-0.210449:-0.995117:-0.0229492:-0.75:-0.25:0.625
1562063443526908:-2:-3:2:2:1:5:-7:-23:-0.21582:-0.997559:-0.0283203:-0.875:0.125:0.3125
1562063443574908:1:2:2:3:2:1:2:-2:-0.220703:-0.993652:-0.0229492:-0.75:-0.4375:0.0625
1562063443616908:0:1:2:-5:-1:-5:0:4:-0.22168:-0.995117:-0.027832:-0.5625:-0.625:-0.3125
1562063443677908:-1:1:-2:-9:-7:5:-2:9:-0.215332:-0.996582:-0.027832:-0.8125:-1.25:-0.5
1562063443717908:0:0:1:-1:-4:-9:-2:-10:-0.219238:-1.00635:-0.0288086:0.125:-0.625:0
1562063443778908:-3:-3:-2:-1:-4:-11:-5:-5:-0.22168:-1:-0.0268555:-1.3125:-0.6875:0.625
1562063443826908:2:0:-4:3:0:-6:-1:4:-0.216797:-0.995605:-0.0268555:-0.125:-0.3125:0.75
1562063443880908:-1:1:1:7:2:0:-11:3:-0.215332:-1.00195:-0.0229492:-0.875:-1.1875:0.125
1562063443920908:-1:-3:-4:-11:-1:1:1:3:-0.219238:-0.99707:-0.0292969:-0.625:-1.3125:-0.125
1562063443977908:1:2:5:-6:3:13:11:8:-0.220215:-0.997559:-0.0268555:-0.5:-0.5625:-0.1875
1562063444030908:1:-2:0:-2:-2:-5:6:0:-0.216309:-0.991699:-0.0322266:-0.5:-0.5:-0.125
1562063444080908:-1:-1:-1:-3:-2:-3:0:3:-0.214355:-1.00439:-0.0253906:-0.875:-0.375:0.125
1562063444135908:2:-1:-3:-5:-1:-4:-5:-4:-0.218262:-0.999023:-0.0283203:-0.25:0:0.25
1562063444179908:0:0:2:-2:1:0:-2:-6:-0.213867:-0.995605:-0.0253906:-1.75:-1.1875:-0.25
1562063444233908:1:0:-2:7:1:-2:-4:12:-0.212402:-0.999512:-0.0239258:-0.875:-0.25:-0.125
1562063444276908:-2:-3:-6:2:-4:0:2:0:-0.215332:-1.00146:-0.0292969:-1.5:-0.3125:0.375
1562063444338908:-1:0:1:0:1:-4:-1:-4:-0.213867:-0.99707:-0.0327148:-1.5:-0.625:0.375
1562063444380908:-1:-2:0:8:0:0:0:1:-0.214355:-0.998535:-0.0356445:-0.3125:-0.375:0.375
1562063444435908:0:0:1:-4:5:0:-4:2:-0.214844:-0.992676:-0.0332031:-0.0625:-0.1875:0.1875
1562063444479908:2:1:0:-8:-2:-2:-2:16:-0.221191:-0.999512:-0.0380859:0.25:0:-0.0625
1562063444532908:-3:-2:0:-2:1:-2:-1:-19:-0.213867:-0.996582:-0.0249023:0.375:-0.4375:-0.0625
1562063444579908:-1:1:1:-3:0:3:1:-2:-0.214844:-0.995605:-0.034668:0.375:0.0625:-0.125
1562063444639908:-2:0:-1:-4:1:1:10:-12:-0.222168:-0.998535:-0.034668:-0.375:0:0.625
1562063444689908:0:1:2:-4:-2:-1:-9:-5:-0.217285:-0.994629:-0.0385742:0.875:0.125:0.5625
1562063444740908:0:-1:1:-2:-2:-3:14:22:-0.216309:-0.998047:-0.0317383:-0.25:-0.5625:-0.0625
1562063444779908:0:-3:-2:-3:-3:-5:-4:0:-0.215332:-0.99707:-0.03125:0.1875:-0.375:0
1562063444839908:0:-1:-1:0:0:2:-1:3:-0.21875:-1.00049:-0.0327148:-0.625:-0.9375:-0.1875
1562063444880908:0:1:-1:0:1:6:-5:-20:-0.221191:-0.993652:-0.0302734:0:-0.625:-0.1875
1562063444940908:1:-1:1:0:-1:1:0:6:-0.208496:-0.99707:-0.03125:-0.25:-0.625:-0.125
1562063444982908:0:2:2:-4:0:3:4:-11:-0.213379:-0.998047:-0.0268555:0.5625:-0.125:-0.125
1562063445042908:1:-2:-2:0:0:0:12:9:-0.213379:-1.00342:-0.0351562:-0.25:-0.0625:-0.1875
1562063445079908:1:0:2:3:1:3:14:7:-0.219238:-1.00049:-0.0375977:0.5625:0.125:0.4375
1562063445139908:0:-1:0:5:0:4:-7:-13:-0.216797:-0.993652:-0.0307617:0.375:0.125:0.75
1562063445193908:-2:-2:1:-2:-3:-6:-7:-12:-0.211426:-0.994629:-0.034668:0.375:-0.1875:0.8125
1562063445243908:-1:-2:-3:-3:-3:-1:5:1:-0.213867:-0.995117:-0.0263672:0.6875:-0.0625:0.625
1562063445281908:-1:-1:3:0:-5:-4:-12:-16:-0.223145:-0.997559:-0.0239258:0.625:-0.375:0.6875
1562063445342908:0:-1:-1:0:1:5:14:0:-0.218262:-0.995117:-0.027832:0.9375:-0.0625:0.4375
1562063445394908:0:-1:0:4:0:-1:7:10:-0.218262:-0.993164:-0.0195312:0.4375:-0.125:0.125
1562063445439908:-2:-2:0:-2:-3:-2:-13:-3:-0.216797:-0.994629:-0.0249023:1.6875:1.1875:0
1562063445492908:10:1:-2:1:-3:-4:-22:19:-0.216797:-0.994141:-0.0214844:1.4375:2.1875:-0.1875
1562063445542908:19:7:0:1:1:1:13:-4:-0.211426:-1:0.00390625:-1.4375:9.875:0.3125
1562063445598908:-3:-25:-2:0:-2:-5:-13:-32:-0.209473:-0.992188:-0.00976562:2.625:18.25:-0.1875
1562063445641908:-76:-20:-3:-4:-2:-1:17:1:-0.203613:-0.995117:-0.015625:2.75:28.875:3.6875
1562063445695908:-28:-5:-1:3:11:8:21:-32:-0.225098:-0.975098:-0.046875:11.4375:28.8125:9
1562063445742908:62:4:0:-9:-8:-17:-84:-1:-0.221191:-1.03564:-0.0380859:17.4375:32.125:16.1875
1562063445792908:-48:-59:0:-15:-3:-6:18:-7:-0.19873:-0.98584:-0.0561523:9.875:19.0625:11.3125
1562063445844908:7:30:-4:-16:7:8:-36:-2:-0.34375:-0.924805:-0.00390625:6.25:18.125:10.5
1562063445897908:-55:31:9:25:4:3:23:2:-0.224609:-0.955566:-0.0224609:6.25:13.1875:3.625
1562063445942908:75:1:-1:17:-10:-4:-4:122:-0.303711:-1.00732:-0.0175781:-12.4375:12.6875:5.5
1562063446001908:-5:-7:-7:-78:-2:2:40:-20:-0.255859:-0.941895:-0.0361328:-2.5625:7:1.125
1562063446045908:123:32:-1:17:-13:-4:30:28:-0.275391:-0.988281:-0.0161133:-13.9375:6.875:-8
1562063446100908:-26:-8:-7:-16:-1:-2:-12:-5:-0.236816:-1.00391:-0.0327148:-7.25:6.0625:-1.0625
1562063446144908:-10:-4:0:22:-28:4:9:-6:-0.253418:-0.945801:-0.0576172:-5.25:1.75:-6.25
1562063446198908:-3:2:9:42:13:2:-4:-2:-0.255371:-0.991699:-0.0712891:-0.5:-3.75:-6.75
1562063446242908:0:1:4:13:10:3:3:-3:-0.277344:-1.01465:-0.0795898:2.25:-17.375:3.25
1562063446294908:-5:1:2:-11:0:2:-3:-6:-0.228027:-0.943359:0.0229492:26.5:-6.9375:-6.6875
1562063446345908:-3:-1:-3:14:5:2:-9:-4:-0.211914:-0.948242:0.0161133:-0.75:1.5:-12.9375
1562063446401908:0:-2:-2:-12:-1:-3:2:6:-0.216797:-1.02832:-0.0463867:0.375:1.4375:-0.75
1562063446451908:-7:-3:-3:6:-16:2:12:0:-0.249023:-0.990723:-0.0498047:-1.1875:-1.5:1.625
1562063446497908:-3:-1:-2:-2:1:0:-1:-6:-0.248535:-0.989746:-0.0317383:0.25:-5.8125:2.6875
1562063446544908:-1:-1:1:3:2:4:7:2:-0.236816:-0.989746:-0.015625:1.1875:-5.4375:0.8125
1562063446603908:0:2:3:-2:1:2:-4:-3:-0.226074:-0.995117:-0.0258789:5.1875:-3.4375:-0.375
1562063446655908:1:1:-4:8:0:2:2:4:-0.227051:-1.01172:-0.0185547:4.6875:-4.5:0.0625
1562063446706908:-3:-2:-2:-3:-1:-1:-1:1:-0.226562:-1.0127:-0.0327148:7.3125:-4.875:2.875
1562063446744908:-1:-1:-1:-2:8:5:1:-22:-0.241699:-1.00684:-0.0112305:7.4375:-6.75:5.8125
1562063446804908:-1:-4:-5:4:-1:-3:-6:-2:-0.241211:-1.01611:0.00146484:10.3125:-6.0625:7.25
1562063446845908:-1:-2:-1:-12:-2:0:2:-2:-0.234375:-0.99707:0.00195312:14.25:-6.4375:7.6875
1562063446904908:0:-3:0:-2:0:4:2:-1:-0.22998:-0.995117:0.0136719:17.1875:-4.5625:6.25
1562063446946908:-1:3:4:-1:1:-4:3:-10:-0.253418:-0.993164:0.0507812:12.75:-3.3125:3.625
1562063447006908:-1:-2:-2:0:-1:-5:-7:5:-0.26709:-0.994141:0.0722656:11.125:-5.0625:3.3125
1562063447059908:0:0:0:19:-1:-5:-15:1:-0.277832:-0.976562:0.0825195:14.5:-5.375:4.875
1562063447104908:-1:0:2:2:-1:-2:-5:3:-0.265625:-0.970703:0.0854492:12.4375:-5.1875:5.1875
1562063447160908:-3:-2:0:1:2:1:1:-2:-0.28418:-0.959961:0.0888672:13.75:-3.625:8.1875
1562063447204908:0:1:-3:-7:-1:-3:-1:-3:-0.29248:-0.963379:0.0957031:10.4375:-2.8125:9.1875
1562063447250908:0:0:4:-9:-8:-4:-6:-1:-0.286133:-0.963379:0.115234:11.4375:-2.8125:9.3125
1562063447306908:-1:-1:-2:-10:-10:-7:-9:-6:-0.299805:-0.967773:0.123535:11:-2.0625:10.5
1562063447359908:4:10:24:5:1:7:-3:2:-0.303711:-0.944824:0.134766:10.6875:-0.375:11.3125
1562063447404908:0:1:5:-7:2:-1:9:6:-0.337402:-0.976562:0.222168:13.1875:-2.1875:13.1875
1562063447464908:-1:-1:3:16:-1:5:-11:-3:-0.338867:-0.943359:0.173828:14.3125:-5.25:10
1562063447504908:-1:-1:-5:3:4:2:2:-4:-0.330078:-0.928711:0.164062:19.0625:-2.75:14.1875
1562063447564908:-3:-2:-4:-7:-4:-8:-9:-1:-0.351074:-0.921875:0.210938:15.8125:-3.1875:14.375
1562063447607908:0:1:5:0:-1:0:-2:4:-0.358887:-0.925781:0.219238:11.8125:-2.9375:14.125
1562063447662908:1:0:-1:0:1:0:-5:2:-0.377441:-0.910645:0.222656:11.4375:-0.6875:12.375
1562063447704908:-1:-1:-2:7:4:-2:0:-2:-0.382324:-0.905762:0.229492:11:1.4375:9.4375
1562063447765908:-1:-5:-8:-10:-4:8:7:0:-0.373535:-0.908691:0.234375:8.375:2.4375:6.1875
1562063447808908:-1:0:-3:3:1:0:-5:-10:-0.391113:-0.904785:0.23877:5.8125:2.25:5
1562063447862908:2:4:8:12:-4:-3:-9:-4:-0.393066:-0.912109:0.225586:9.8125:4.3125:4.5625
1562063447907908:-3:-2:-6:-3:-5:-5:1:-1:-0.422363:-0.896484:0.242676:6.1875:3:4.5
1562063447966908:-1:0:-4:-12:-10:-6:-2:-2:-0.403809:-0.916504:0.236328:7.4375:2.25:2.8125
1562063448007908:0:2:1:-8:0:5:4:-5:-0.413574:-0.898926:0.236328:9.6875:0.9375:4.3125
1562063448067908:-1:-6:-4:0:1:-1:1:9:-0.412598:-0.90332:0.259766:10.9375:1.5:4.25
1562063448108908:-2:1:3:2:-3:0:3:1:-0.412109:-0.87207:0.286621:10.9375:1.125:1.75
1562063448161908:-1:-2:0:4:-1:1:3:3:-0.40625:-0.887207:0.303711:13.625:1.375:0.1875
1562063448206908:-1:-1:-2:-6:0:0:0:1:-0.401367:-0.878418:0.286621:9.3125:4:-2.1875
1562063448266908:-1:2:8:9:-5:-3:-1:-4:-0.401855:-0.888672:0.293945:7.875:5.8125:-2
1562063448307908:-1:2:1:-5:-7:-2:1:0:-0.411621:-0.864746:0.30957:8.5:5.8125:-1.3125
1562063448367908:-3:-1:-4:3:-2:-2:-1:-9:-0.394531:-0.859863:0.297852:8.125:4.5625:-0.3125
1562063448408908:2:3:8:1:10:2:1:1:-0.438965:-0.933594:0.249512:6.25:4.4375:2.8125
1562063448469908:0:1:3:2:-1:0:-4:-13:-0.404297:-0.927246:0.318848:6.4375:6:3.875
1562063448521908:-2:0:1:2:-5:3:-1:2:-0.438965:-0.896973:0.330566:10.625:5.4375:3.125
1562063448567908:0:-2:-3:-12:-4:0:1:12:-0.427246:-0.884277:0.354004:7.5625:4.3125:0.9375
1562063448622908:0:-1:2:-4:-3:-2:-1:-1:-0.453125:-0.861328:0.356934:2.625:4.6875:2.75
1562063448671908:-2:-2:-3:-1:1:0:-3:-3:-0.451172:-0.843262:0.354004:2.3125:4.625:2.4375
1562063448717908:0:2:1:-7:-2:4:-3:0:-0.444336:-0.865723:0.332031:-0.5625:3.375:3.6875
1562063448768908:1:0:0:-1:-1:-3:-3:-2:-0.420898:-0.868652:0.324707:3.375:3.4375:6.125
1562063448822908:-3:-3:-2:-5:-3:1:1:-2:-0.428223:-0.858398:0.3125:-0.8125:4.9375:6.875
1562063448870908:1:-2:-4:-3:1:0:0:-1:-0.453125:-0.845215:0.32373:4.3125:3.25:7.9375
1562063448912908:0:0:4:15:-2:2:0:0:-0.449707:-0.845215:0.314941:0.9375:0.6875:7.125
1562063448972908:0:-1:-5:-19:-4:1:0:-3:-0.443848:-0.841797:0.328125:2.0625:-2.4375:5.6875
1562063449024908:-1:1:3:-1:-1:2:1:1:-0.464844:-0.834473:0.34375:-0.3125:-3.5625:3.125
1562063449069908:-1:-4:-11:-1:-1:-5:-4:-1:-0.47998:-0.83252:0.341797:0.75:-2.875:2.375
1562063449122908:0:-3:-4:-2:1:0:0:3:-0.469727:-0.839355:0.343262:0.5:-1.5625:1.625
1562063449170908:-2:1:-1:-1:-4:-2:-3:-1:-0.487305:-0.844727:0.330566:-1.5625:0.4375:2.9375
1562063449229908:-2:-1:0:10:-3:-4:0:0:-0.487305:-0.821777:0.342773:-1.125:0.4375:3.5625
1562063449271908:-1:1:0:5:1:-1:0:0:-0.466797:-0.838379:0.331055:-1.875:1.0625:3.9375
1562063449331908:-1:-1:-4:-7:1:0:-1:-1:-0.467773:-0.826172:0.337891:-2.75:1:3.5
1562063449369908:-1:0:-2:4:-3:0:0:0:-0.44873:-0.839844:0.339844:-1.625:0.375:2.0625
1562063449429908:-1:-1:-3:-4:3:2:0:-2:-0.444336:-0.836914:0.337402:0.375:0:-0.375
1562063449481908:1:1:-2:4:0:0:-1:1:-0.46582:-0.844238:0.318359:0.8125:0.0625:-3.5625
1562063449526908:-1:-2:-2:6:3:0:0:-1:-0.479004:-0.844727:0.32666:2.5:1.125:-2.0625
1562063449571908:1:2:3:1:2:0:3:1:-0.486328:-0.833984:0.337891:0.125:2.5625:2.4375
1562063449631908:-3:-2:-7:-21:3:0:-1:-2:-0.502441:-0.834473:0.32959:-1.5625:3.0625:5
1562063449684908:-1:1:-1:1:-2:-2:1:-2:-0.489258:-0.828613:0.322266:-3.125:2.9375:5.5
1562063449732908:1:1:3:9:0:1:1:1:-0.484375:-0.823242:0.325195:-1.0625:3.0625:4.5
1562063449775908:-1:-4:-2:-2:-2:0:2:-1:-0.48584:-0.828613:0.325684:-1.3125:1.9375:2.0625
1562063449826908:1:2:1:4:0:2:-1:0:-0.478027:-0.833984:0.320312:0.25:0.875:0.75
1562063449871908:0:0:2:0:-3:0:1:-1:-0.478516:-0.839355:0.31543:0.6875:0:-0.125
1562063449931908:-1:-2:-4:-8:-5:-4:-1:-2:-0.486328:-0.837891:0.316895:0.1875:0.375:-0.625
1562063449984908:0:-2:-2:-3:-6:-4:-2:-1:-0.498535:-0.828613:0.328125:1.1875:0.8125:1.0625
1562063450032908:-2:-3:-2:4:-4:1:1:0:-0.49707:-0.830566:0.327148:-0.8125:1.625:1.375
1562063450074908:1:0:-2:-3:2:-1:2:0:-0.497559:-0.831055:0.318848:-0.5625:2.375:2.3125
1562063450133908:-2:-3:-2:5:2:0:-3:-1:-0.496094:-0.822754:0.312988:-1:2.3125:1.8125
1562063450186908:-1:-1:-3:0:1:-1:-2:0:-0.495117:-0.829102:0.320312:-0.3125:1.125:1.4375
1562063450232908:-2:-4:-6:-4:-3:-4:0:-4:-0.49707:-0.825195:0.319824:-0.25:0.8125:0.6875
1562063450283908:0:-2:0:-7:-4:-2:-2:-2:-0.492188:-0.831543:0.315918:0.5625:0.125:-0.0625
1562063450332908:0:1:7:-5:-2:-2:-2:-1:-0.497559:-0.835449:0.323242:1.25:-0.1875:0.75
1562063450373908:1:-1:-4:7:2:2:2:1:-0.491211:-0.830566:0.318359:2.4375:0.875:1.5
1562063450434908:-2:-3:-4:1:-6:-1:-4:-2:-0.496582:-0.826172:0.317871:2.375:0.9375:2.3125
1562063450486908:1:0:-2:9:0:-1:-1:0:-0.498047:-0.822754:0.319824:0.75:1.125:1.9375
1562063450531908:-2:-4:-2:14:-2:-4:-4:-3:-0.500488:-0.82666:0.318848:0.625:-0.0625:0.5
1562063450584908:-1:2:3:8:2:-1:-3:-2:-0.512207:-0.820312:0.316895:0.8125:-1:-0.125
1562063450636908:0:-2:0:-6:-2:-1:1:0:-0.505371:-0.827637:0.32373:0.625:-1.875:0.125
1562063450673908:0:1:3:6:-5:-2:-2:0:-0.509766:-0.822266:0.321289:0.5:-2.5:0.5
1562063450734908:-2:-2:-5:9:3:0:1:-2:-0.500977:-0.820312:0.327637:0.6875:-2.3125:0.25
1562063450786908:-1:0:-3:1:0:-1:-3:-3:-0.493164:-0.818359:0.326172:0.6875:-2.3125:-0.6875
1562063450834908:-2:-5:-8:-4:-2:-2:0:3:-0.492188:-0.825684:0.326172:0.25:-2.625:-1.375
1562063450877908:34:11:3:-1:4:9:20:65:-0.493164:-0.828613:0.333496:1.0625:-2.6875:-0.375
1562063450936908:-5:1:-14:-9:-7:-13:-80:-76:-0.508789:-0.770508:0.344238:-9.625:14.75:3
1562063450989908:-105:-28:-5:-6:5:26:127:-56:-0.536621:-0.814941:0.298828:-18.4375:25.5625:6.4375
1562063451034908:-24:-23:7:0:-5:-15:-93:-26:-0.426758:-1.01758:0.219238:-41.625:-32.625:16.5625
1562063451086908:32:26:-13:0:2:0:-86:79:-0.537598:-0.83252:0.334961:17:-19.125:47.125
1562063451133908:-22:-15:10:2:4:10:36:-49:-0.4375:-0.675293:0.328613:17.1875:-1.0625:8.875
1562063451192908:8:-17:-3:20:1:2:21:17:-0.632324:-0.724609:0.330078:-8.5625:-6.625:-13.125
1562063451237908:1:-3:-2:-34:-52:-9:14:16:-0.515625:-0.860352:0.34668:6.5:8.4375:-13.8125
1562063451288908:6:-3:0:-13:32:10:8:4:-0.523926:-0.775391:0.248535:-7.0625:-2.6875:-11.5
1562063451333908:-1:-4:1:-28:0:3:-2:1:-0.564453:-0.916016:0.258301:27.5625:-15.25:1.375
1562063451393908:-1:0:1:36:8:0:2:1:-0.580566:-0.694824:0.324219:36.5:-14.1875:-1.4375
1562063451439908:0:1:-1:-26:15:6:3:0:-0.486816:-0.802734:0.393066:14.6875:-7.375:-14.8125
1562063451491908:-1:0:1:-4:2:-2:0:-1:-0.453125:-0.791016:0.368652:-7.5:-1.8125:-16.25
1562063451536908:0:0:0:-10:5:1:-5:-19:-0.46582:-0.881836:0.319336:-2.5:2.625:-7.4375
1562063451589908:0:-1:1:28:0:-2:-1:1:-0.470215:-0.834473:0.329102:2.8125:0.875:-0.3125
1562063451637908:0:1:-1:17:2:1:-1:2:-0.48291:-0.825684:0.354492:1.25:-1:0.125
1562063451695908:0:2:3:5:8:0:0:5:-0.487793:-0.822754:0.348633:1.3125:-0.25:-0.1875
1562063451740908:-1:0:-1:-2:-7:-3:-2:-2:-0.491211:-0.833008:0.356934:-0.9375:-0.75:-0.25
1562063451791908:1:-2:-4:-1:-1:0:-1:0:-0.483398:-0.826172:0.351562:1.4375:0.125:0.0625
1562063451836908:-2:-1:2:12:1:1:-4:-3:-0.486816:-0.824219:0.351562:1.625:0.375:0.8125
1562063451897908:-1:0:-1:1:-3:2:1:0:-0.480957:-0.82666:0.349121:-0.9375:-0.3125:0.0625
1562063451949908:0:-3:-2:10:1:-2:1:2:-0.480469:-0.812988:0.350098:-0.25:0.0625:0.0625
1562063451997908:0:1:3:-8:0:-1:-1:-1:-0.477051:-0.827148:0.351562:-0.75:0.125:0.125
1562063452039908:0:0:6:12:-3:0:-1:-1:-0.480469:-0.822266:0.348633:1.125:0.5625:0.4375
1562063452099908:-2:0:-2:3:6:2:1:-1:-0.477051:-0.821289:0.347168:-0.5625:1:-0.75
1562063452151908:-1:-1:-3:-2:-4:1:-1:0:-0.486328:-0.833984:0.350586:0.1875:0.6875:-0.625
1562063452197908:0:2:8:-3:1:-1:0:-1:-0.492188:-0.822754:0.35498:1.375:0.1875:-0.6875
1562063452248908:-1:-1:-7:1:-1:1:0:-1:-0.487305:-0.821289:0.348145:-0.5:0.5625:-1.0625
1562063452297908:0:1:1:-8:-6:-2:-2:-1:-0.484375:-0.82373:0.341797:2.125:1.4375:0.0625
1562063452354908:0:0:3:1:-4:1:-2:-2:-0.479004:-0.832031:0.343262:-0.125:0.75:0.4375
1562063452400908:0:0:-1:0:-7:-1:-1:-1:-0.48291:-0.82666:0.350586:-0.125:0.0625:0.5625
1562063452451908:0:-1:1:-2:4:-3:0:0:-0.480957:-0.816895:0.356445:0.375:-0.6875:0.5
1562063452496908:0:0:-3:-20:-6:-1:-1:1:-0.48584:-0.834961:0.353027:0.6875:-0.4375:-0.125
1562063452542908:-1:1:3:5:1:-1:0:0:-0.477539:-0.814941:0.348633:0.3125:-0.625:-0.5
1562063452602908:1:-1:-1:3:0:3:0:-1:-0.478516:-0.828613:0.353516:-0.9375:-0.3125:-0.1875
1562063452654908:-1:-3:-2:2:-1:-3:-3:-3:-0.484863:-0.816406:0.355469:1:0.3125:0.5625
1562063452699908:0:1:0:17:-1:0:-1:1:-0.479004:-0.82666:0.346191:1.25:1.125:0.375
1562063452759908:-1:1:1:-10:-2:-3:-3:-2:-0.481934:-0.819824:0.348633:1.125:0.625:0.4375
1562063452799908:-1:-2:-3:-2:0:-2:-3:-3:-0.480957:-0.827148:0.35498:-0.125:0.0625:0.375
1562063452859908:-2:-2:-9:-3:-6:-3:-2:-2:-0.48584:-0.821777:0.346191:0.125:-0.625:0.4375
1562063452902908:1:2:6:2:1:-1:-2:0:-0.487793:-0.814941:0.356934:-0.125:-0.5:-0.5625
1562063452954908:1:0:1:-4:-1:-2:-2:0:-0.479492:-0.826172:0.354004:-1.6875:-1.3125:-0.8125
1562063452999908:0:1:0:11:-2:-2:-1:0:-0.48291:-0.821289:0.35791:-1:-0.75:-1.25
1562063453059908:-2:-1:-5:8:3:2:-1:-2:-0.475098:-0.831055:0.355469:-1.125:-0.8125:-0.0625
1562063453112908:1:1:2:2:13:3:1:0:-0.475586:-0.83252:0.347656:0.5625:-0.4375:0.6875
1562063453160908:1:4:6:-4:-3:1:1:-1:-0.475586:-0.822266:0.345215:-1.6875:-0.125:0.6875
1562063453202908:-1:1:3:-5:-5:-2:0:0:-0.479004:-0.834961:0.350586:0.125:1:0.5625
1562063453262908:-2:-1:-1:-1:-2:-2:0:-1:-0.47998:-0.823242:0.349609:0.625:1.625:0.375
1562063453299908:-2:-2:-3:-13:-3:-3:-1:0:-0.478516:-0.829102:0.347168:0.3125:1.5625:0.5
1562063453360908:0:1:3:12:-7:-1:2:-1:-0.484863:-0.825195:0.350098:-0.125:0.6875:0.4375
1562063453411908:-1:0:1:-2:1:-1:1:-1:-0.487305:-0.824219:0.341797:0.6875:0.5:0.0625
1562063453457908:2:1:0:-2:0:1:1:0:-0.48584:-0.826172:0.345215:-0.875:0:-0.1875
1562063453503908:-1:-1:-3:3:4:0:1:0:-0.480957:-0.826172:0.351074:-0.375:-0.25:0
1562063453564908:-1:-1:0:-3:-4:-6:-2:-2:-0.47998:-0.821777:0.344238:-0.8125:-0.625:0.1875
1562063453613908:0:-2:-4:2:-1:-1:-1:-2:-0.476562:-0.834961:0.343262:0.25:-0.125:-0.1875
1562063453664908:1:-2:2:2:2:0:-1:-2:-0.476562:-0.828125:0.348145:-0.0625:-0.4375:-0.1875
1562063453707908:0:-1:-4:2:1:1:1:0:-0.478516:-0.830566:0.346191:0.8125:-0.375:-0.375
1562063453767908:0:-2:0:1:-1:-2:-2:-1:-0.482422:-0.821777:0.355469:1.125:-0.25:-0.25
1562063453816908:0:0:2:-17:-5:0:0:-1:-0.489258:-0.825684:0.349121:-0.125:0.4375:0.0625
1562063453864908:-1:-1:1:8:1:-1:1:0:-0.485352:-0.816895:0.348145:0.5625:1.375:0.8125
1562063453913908:0:0:0:-5:-4:-3:-2:-1:-0.47998:-0.832031:0.34668:0:1.0625:1
1562063453958908:-2:-3:-6:-6:1:1:-1:1:-0.47998:-0.824707:0.351074:0.5625:-0.0625:0.5
1562063454006908:0:0:0:-1:-1:0:0:0:-0.476562:-0.827148:0.345215:0.1875:-0.3125:0.25
1562063454067908:0:0:-2:-5:2:0:0:0:-0.482422:-0.825195:0.351074:0.6875:-0.9375:-0.1875
1562063454116908:1:1:4:1:-3:1:-2:0:-0.484375:-0.820801:0.347168:-0.125:-0.625:-0.375
1562063454164908:-2:-1:-2:-8:-1:-1:-1:-1:-0.482422:-0.821289:0.355957:0.375:0:-0.5
1562063454214908:-2:-3:1:2:3:2:-2:0:-0.48584:-0.824707:0.351074:0.3125:-0.125:-0.1875
1562063454269908:0:-1:-1:-1:-2:-4:-2:-1:-0.484863:-0.828125:0.348633:0.125:0.25:-0.1875
1562063454319908:0:-3:1:6:3:1:-1:-1:-0.477539:-0.827637:0.349609:0.75:0.3125:0.0625
1562063454366908:0:2:2:-5:-2:-2:0:-1:-0.478027:-0.824219:0.35498:-0.0625:-0.125:0.1875
1562063454416908:-1:0:1:-2:-2:0:-2:-2:-0.48291:-0.817383:0.351074:0.5:-0.375:0.5
1562063454467908:0:0:5:-2:0:-1:1:-1:-0.478516:-0.822754:0.347168:-1.1875:-0.6875:-0.5625
1562063454509908:-1:0:-1:-4:-3:-3:-4:-1:-0.479492:-0.821777:0.352051:-3.625:-0.625:-1.625
1562063454569908:-1:0:4:3:1:1:0:-1:-0.483887:-0.821289:0.355469:0.875:-0.25:-2.125
1562063454619908:0:-3:-3:-6:-3:-3:-3:-1:-0.479004:-0.828613:0.351074:-0.6875:-0.375:-1.5625
1562063454666908:-1:1:-2:-3:-3:-1:-1:-2:-0.478516:-0.823242:0.34375:0:0.0625:0.0625
1562063454715908:0:-1:-1:2:-2:-2:0:-2:-0.477051:-0.823242:0.351562:-0.1875:-0.125:0.1875
1562063454768908:-1:0:1:0:6:-2:-2:-1:-0.47168:-0.824707:0.352539:-0.25:-0.4375:-0.1875
1562063454823908:-1:0:-3:-7:-1:-1:1:-1:-0.473145:-0.829102:0.353027:0.3125:-1.25:-0.5625
1562063454869908:0:0:2:3:2:3:0:0:-0.473145:-0.824707:0.346191:0.125:-0.8125:-0.4375
1562063454918908:-1:-1:-2:-2:5:0:-1:2:-0.474121:-0.827637:0.348633:0.375:-1.125:0.1875
1562063454967908:44:6:18:5:2:-7:30:74:-0.512207:-0.828125:0.372559:-6.8125:1.25:6.75
1562063455026908:-41:-39:-16:-18:-16:4:76:118:-0.48877:-0.849121:0.306152:-28.0625:26.4375:-16.25
1562063455076908:-69:-49:-42:-24:-9:-2:-20:17:-0.564453:-0.909668:0.174805:-19:5.8125:13.0625
1562063455120908:76:97:13:6:3:-7:-54:-7:-0.282715:-1.05127:0.287598:8.375:-34.0625:47
1562063455169908:-20:-16:-12:-1:2:-8:-63:-59:-0.720215:-0.705078:0.352051:19.8125:-9.8125:41.25
1562063455229908:47:10:10:-3:-5:-9:-32:32:-0.503906:-0.720215:0.357422:-10.5625:-11.3125:5.625
1562063455278908:2:-4:10:12:8:-2:-20:-11:-0.55127:-0.79248:0.362793:-13.6875:-0.375:-5.625
1562063455327908:6:-3:2:-8:-6:2:-13:3:-0.507324:-0.806152:0.340332:6.75:14.875:-21.5
1562063455368908:-3:-7:-36:-66:-12:-11:-5:1:-0.470215:-0.826172:0.330566:-11.125:10.0625:-17.6875
1562063455429908:2:0:1:17:-3:1:-1:1:-0.556152:-0.851074:0.224609:20.1875:-10.875:-2.6875
1562063455481908:-1:-7:-23:-11:-6:-2:-1:0:-0.583984:-0.806641:0.302734:28.4375:-23.25:-0.625
1562063455529908:0:-2:2:25:-1:2:-7:-4:-0.499512:-0.647461:0.383789:27.25:-12.4375:-14.9375
1562063455579908:-3:-2:0:3:-2:-1:-4:-1:-0.436035:-0.868652:0.413086:-15.125:-4.3125:-24.125
1562063455630908:-1:0:1:-9:-5:-2:0:-2:-0.44043:-0.811523:0.355469:10.5625:10.75:-16.625
1562063455668908:-2:1:5:22:-2:0:-1:0:-0.443359:-0.864746:0.33252:-11.375:2.5625:-8.875
1562063455728908:2:0:0:-6:2:1:1:-1:-0.472656:-0.836914:0.36377:4.875:1.125:-2.75
1562063455781908:0:0:1:6:4:0:-1:0:-0.467773:-0.833496:0.362305:-4.625:-1.5:-0.75
1562063455829908:-2:-1:-1:1:-3:-2:-2:-2:-0.461426:-0.837402:0.358887:-0.3125:-1.1875:0.3125
1562063455879908:0:-1:0:-1:-5:0:0:-2:-0.449707:-0.835938:0.359375:-0.25:-1.1875:0.4375
1562063455930908:-1:0:4:12:0:1:-1:0:-0.444336:-0.839355:0.365723:0:-0.625:0.4375
1562063455984908:-1:-1:1:-1:-6:-1:0:0:-0.450684:-0.827637:0.368164:-0.4375:0.75:-0.5625
1562063456028908:0:-2:-2:0:1:0:1:-1:-0.453125:-0.845215:0.36377:-1.6875:0.25:-0.125
1562063456081908:-1:-3:-5:-8:0:0:2:-1:-0.453125:-0.829102:0.354492:-0.5625:1.3125:-0.25
1562063456132908:0:-1:2:6:0:-2:-1:-1:-0.452148:-0.835449:0.355469:-2.1875:0:-0.3125
1562063456179908:0:1:-2:-16:0:-1:1:1:-0.456543:-0.820801:0.355957:0.6875:-0.3125:0.3125
1562063456231908:-2:-1:-1:-4:-7:-4:-3:-1:-0.455078:-0.848633:0.358398:-1.25:-0.5:0.0625
1562063456284908:-2:0:-1:7:0:0:-2:1:-0.453125:-0.838867:0.35791:1.5:-0.875:0.25
1562063456328908:-2:-1:0:3:-2:-1:1:0:-0.450684:-0.841797:0.36084:2:-0.0625:0
1562063456382908:-1:-1:-1:1:0:-2:-1:-1:-0.454102:-0.835938:0.361816:-4.6875:-1.625:-1.0625
1562063456436908:-1:-2:-5:1:0:-1:1:-1:-0.448242:-0.842285:0.354492:0.75:-0.625:0.625
1562063456487908:-1:-3:-2:3:4:2:1:0:-0.444824:-0.839355:0.35791:-1:-0.6875:0.5
1562063456531908:-1:-2:-1:1:0:0:0:2:-0.454102:-0.841309:0.355469:-0.0625:-0.5:0.4375
1562063456590908:0:1:2:0:2:-3:-1:0:-0.45459:-0.83252:0.366699:-0.5:-0.1875:0.3125
1562063456631908:-2:-2:0:1:1:-2:-1:-1:-0.452148:-0.84082:0.360352:0.75:-0.1875:0.3125
1562063456691908:0:2:7:2:-3:-1:0:-1:-0.452148:-0.839355:0.35498:-1.875:-0.1875:0.6875
1562063456741908:-2:-1:-3:3:-1:-2:-1:-1:-0.45166:-0.834961:0.354492:1:0:1.125
1562063456793908:-1:-2:1:7:4:3:0:0:-0.45166:-0.834473:0.355469:0.6875:0.25:1.1875
1562063456831908:-1:-2:-1:-2:2:0:-2:0:-0.455078:-0.838379:0.365723:-0.1875:0.3125:0.9375
1562063456890908:-1:-3:-7:-12:-6:-1:0:-1:-0.456543:-0.829102:0.36377:0.5:0.125:-0.0625
1562063456944908:1:1:3:-1:-1:2:0:0:-0.455566:-0.840332:0.358398:-0.75:-0.625:0.5
1562063456992908:1:-1:-1:-7:1:-1:1:0:-0.452637:-0.837891:0.359375:-0.75:-0.25:-0.0625
1562063457041908:0:1:3:-6:-7:-2:-1:0:-0.453125:-0.833008:0.359863:-2.5:-0.75:-0.1875
1562063457093908:-1:-3:-5:-1:4:0:0:-2:-0.45459:-0.822266:0.356934:0.625:-0.5:0.3125
1562063457146908:1:0:1:-5:-3:1:3:1:-0.447754:-0.838379:0.356445:-0.3125:-0.5:-0.1875
1562063457190908:0:0:-3:-7:-8:1:-1:0:-0.452148:-0.833008:0.36084:-0.0625:-0.375:-0.3125
1562063457244908:0:-2:-2:-1:0:0:-1:0:-0.455078:-0.83252:0.356934:-1.3125:-0.8125:-0.5625
1562063457294908:-1:-1:-2:-3:0:1:1:0:-0.450195:-0.84082:0.363281:-0.9375:-0.5:-0.375
1562063457333908:0:0:1:-4:-1:0:0:2:-0.450684:-0.839844:0.364746:0.25:-0.125:0.0625
1562063457393908:-2:-1:-3:12:-7:-5:-2:-1:-0.446289:-0.841309:0.363281:-1.9375:0.0625:-0.0625
1562063457446908:0:-2:-2:-5:-2:0:0:-3:-0.449219:-0.833008:0.356445:0.1875:0.125:0
1562063457491908:-1:0:-3:0:-1:0:2:0:-0.44873:-0.836426:0.360352:-0.25:0.1875:0.1875
1562063457550908:-1:-1:-3:7:-2:0:0:-2:-0.450195:-0.836426:0.354492:0.8125:0.6875:0.625
1562063457604908:-1:0:-1:5:-3:0:-1:0:-0.446777:-0.838867:0.359375:1.25:1.375:0.625
1562063457654908:0:0:4:4:2:0:0:0:-0.450195:-0.837402:0.36084:1.5625:2.5:-0.1875
1562063457693908:0:1:4:1:2:0:-2:1:-0.458008:-0.834961:0.361816:1.4375:2.0625:-0.6875
1562063457753908:-3:-3:-6:12:0:-1:1:-1:-0.458496:-0.827637:0.353027:1:1.5625:-1.375
1562063457794908:-2:0:2:-4:-2:-1:-1:-2:-0.456543:-0.846191:0.353516:0:0.3125:-1.3125
1562063457854908:-2:-2:-3:-11:-8:-1:0:-2:-0.451172:-0.836426:0.362793:-0.5:-0.5625:0.125
1562063457903908:-3:-1:0:3:1:-1:-1:0:-0.453613:-0.835449:0.356934:0.25:-1.1875:0.875
1562063457954908:1:1:6:0:0:1:1:0:-0.452148:-0.831055:0.36084:-0.3125:-1.125:0.25
1562063457994908:-1:0:0:-2:1:1:-1:0:-0.448242:-0.837402:0.363281:0.1875:-1.125:-0.1875
1562063458054908:0:-1:-1:-2:-3:-2:0:-2:-0.44873:-0.830078:0.362793:0.875:-0.6875:-0.875
1562063458107908:-2:-1:0:2:-1:0:0:0:-0.449219:-0.841797:0.359375:-0.8125:-1:-0.8125
1562063458154908:0:-1:0:-7:0:-1:0:0:-0.451172:-0.834961:0.361328:0.875:-0.625:-0.0625
1562063458196908:0:0:3:11:-4:0:-1:-1:-0.455078:-0.836426:0.359375:-0.125:-0.625:0.375
1562063458256908:0:-2:1:-2:1:0:2:0:-0.44873:-0.833008:0.363281:0.5:-0.4375:0.1875
1562063458309908:-3:-5:-7:-3:0:-3:-3:-3:-0.447266:-0.833496:0.365234:-0.3125:-0.625:0.375
1562063458353908:0:-2:-1:-5:-2:-1:-3:0:-0.44873:-0.835449:0.358887:0.375:-0.5625:0.25
1562063458406908:1:0:0:-8:0:0:1:0:-0.445312:-0.833984:0.365723:0.4375:-0.625:0.1875
1562063458457908:0:0:0:5:1:-1:-1:-2:-0.445312:-0.836426:0.370117:1.1875:0.1875:-0.125
1562063458512908:0:1:4:0:2:0:3:0:-0.44873:-0.837891:0.367188:0.8125:0.1875:0.5
1562063458556908:-1:-2:1:3:1:-1:-1:-2:-0.455566:-0.834961:0.364746:1.3125:0.5625:0.5625
1562063458615908:0:2:2:-2:-3:-2:-3:-1:-0.456055:-0.826172:0.375488:-0.5625:-0.25:0.6875
1562063458656908:0:-1:2:1:-1:0:-2:0:-0.453613:-0.834961:0.37207:0.75:-0.0625:0.875
1562063458716908:1:2:1:4:3:-1:1:1:-0.451172:-0.837402:0.364746:-0.75:-0.1875:0.3125
1562063458766908:2:1:4:6:0:1:1:-1:-0.445312:-0.838379:0.372559:0.375:-0.125:-0.3125
1562063458816908:0:2:-3:-4:1:-1:1:1:-0.447754:-0.84082:0.368652:0.0625:-0.4375:-0.0625
1562063458855908:0:1:2:1:-2:-2:-1:-1:-0.453125:-0.834473:0.362793:-0.1875:-0.625:0.125
1562063458915908:0:-1:-3:-6:-3:-1:-2:-2:-0.449219:-0.835449:0.368652:0.8125:-1.0625:1.4375
1562063458956908:-1:-2:-3:-2:-2:-2:-2:-2:-0.452637:-0.830078:0.366699:0.375:-1.125:1.75
1562063459017908:-1:0:2:4:3:0:-1:0:-0.44873:-0.827637:0.371094:-0.3125:-0.875:1.5
1562063459066908:-1:-3:-4:-28:-8:0:-1:0:-0.450195:-0.833008:0.37207:0:-0.5625:0.8125
1562063459118908:0:-1:0:2:2:0:0:1:-0.449707:-0.836426:0.371582:-0.6875:-0.3125:-0.1875
1562063459156908:0:-1:2:4:-2:0:-1:0:-0.449219:-0.834961:0.368164:0.125:0.3125:-0.25
1562063459216908:-1:1:1:1:-2:-3:-2:-3:-0.446289:-0.843262:0.368652:-0.6875:0.1875:-0.4375
1562063459269908:-1:-1:-3:4:2:0:1:0:-0.446289:-0.830078:0.375:-0.0625:0.1875:0.5
1562063459319908:0:0:-4:-1:-3:-4:-3:-2:-0.459961:-0.825195:0.373535:-0.1875:-0.3125:0.875
1562063459357908:0:-1:-2:-9:0:-1:-1:1:-0.45752:-0.829102:0.366699:0.375:0.0625:1.1875
1562063459418908:-1:-1:1:-1:0:1:0:0:-0.458984:-0.828125:0.367188:-0.3125:0.25:0.0625
1562063459472908:-1:-1:-3:-2:0:0:0:-2:-0.451172:-0.834473:0.366211:-0.75:-0.5:-0.125
1562063459515908:0:0:1:17:5:-1:-1:0:-0.45459:-0.829102:0.36084:-0.6875:-0.625:0.125
1562063459569908:0:0:1:6:1:0:0:-2:-0.447266:-0.829102:0.374023:0.8125:-0.25:0.1875
1562063459619908:-1:-1:3:9:-1:0:-1:-1:-0.449707:-0.831055:0.370605:-0.75:-0.375:0.1875
1562063459674908:-2:-2:1:2:-2:-2:0:-2:-0.452148:-0.828613:0.365234:-0.125:-0.3125:0.375
1562063459718908:-1:0:-1:1:-1:1:-1:-1:-0.45752:-0.828125:0.37207:0:-0.75:-0.125
1562063459771908:-2:0:1:-1:-1:-2:-1:-3:-0.460449:-0.82666:0.368164:-0.75:-1:-0.5625
1562063459819908:0:0:0:1:-2:-2:0:0:-0.45166:-0.838379:0.367188:-0.8125:-1.125:-0.625
1562063459869908:-1:-2:-2:-2:-1:0:-1:-2:-0.447266:-0.831543:0.368164:-1.125:-1.25:-0.75
1562063459920908:1:0:1:2:-2:-2:-3:-3:-0.44873:-0.83252:0.370605:-1.25:-1.1875:-0.5
1562063459974908:0:0:1:-1:-1:-1:-1:-1:-0.450195:-0.836426:0.369141:-0.125:-0.8125:-0.375
1562063460018908:0:-2:-2:-4:-1:1:1:0:-0.444336:-0.833496:0.367188:-0.625:-0.625:-0.3125
1562063460071908:-2:-1:-1:0:-2:-2:-2:-2:-0.445312:-0.832031:0.364746:0.4375:0.25:-0.1875
1562063460121908:-1:-1:0:0:1:-2:-2:0:-0.449707:-0.835449:0.367676:-0.4375:-0.25:-0.375
1562063460160908:-2:-1:2:1:0:0:1:2:-0.44873:-0.834961:0.366699:-0.4375:-0.1875:-0.4375
1562063460220908:0:0:2:4:3:1:0:1:-0.447754:-0.828125:0.374023:-0.75:-0.625:0.0625
1562063460273908:-1:0:-2:-2:0:1:2:0:-0.446289:-0.837891:0.368652:0.125:0:-0.1875
1562063460318908:-1:-1:-3:7:0:-2:-2:-1:-0.446289:-0.837402:0.368652:-1.375:-0.1875:-0.125
1562063460374908:-2:-3:-4:4:-2:1:1:0:-0.450195:-0.836426:0.365723:-0.4375:-0.4375:0.5625
1562063460419908:-2:1:1:2:-1:0:0:1:-0.446289:-0.837402:0.361816:-0.375:-0.25:0.75
1562063460477908:-5:-1:-1:-5:-1:-3:-2:-4:-0.444336:-0.836914:0.364746:0.75:0.4375:0.1875
1562063460520908:5:3:3:0:1:1:-2:41:-0.456543:-0.82373:0.381836:-5.375:1.5:2.4375
1562063460574908:-13:-14:-8:1:0:-2:4:4:-0.4375:-0.861328:0.373535:-5.875:7.4375:-0.625
1562063460621908:-34:-13:-9:-2:0:1:7:33:-0.45459:-0.842773:0.365234:18.5625:16.5:-0.4375
1562063460679908:63:22:5:-5:-10:-12:-74:2:-0.477051:-0.832031:0.30127:-14.25:7:6.8125
1562063460719908:52:19:12:3:3:-17:-119:-97:-0.470215:-0.84668:0.312012:-12.125:-8.75:21.9375
1562063460779908:127:23:-6:-4:-7:-19:-99:17:-0.336914:-0.861816:0.34082:9.625:-21.4375:19.9375
1562063460821908:41:25:4:-4:-11:-8:-33:-36:-0.532227:-0.786133:0.402344:-26.375:-7.875:10.875
1562063460880908:61:-17:11:-5:-1:-12:42:-45:-0.491699:-0.80957:0.345703:-11.0625:-4.375:14.5625
1562063460921908:87:23:-13:-1:6:28:107:-42:-0.500488:-0.834473:0.332031:-15.4375:-5.8125:12.375
1562063460981908:28:5:9:-8:-10:-3:-85:30:-0.506348:-0.73877:0.341797:12.25:-5.875:7.5625
1562063461023908:66:-19:-19:-4:-4:-4:58:-6:-0.503906:-0.833008:0.379883:-10.1875:-9.5:-12.9375
1562063461083908:-38:-5:-6:-14:-3:5:28:-8:-0.46582:-0.829102:0.361816:-2.375:-0.6875:-9.1875
1562063461120908:-14:2:7:32:11:0:2:-9:-0.484863:-0.817383:0.381348:-1.4375:3.3125:-30.625
1562063461180908:-9:-3:-6:26:-12:1:6:-2:-0.424805:-0.854004:0.36084:-13.6875:5.9375:-22.875
1562063461221908:-10:-9:-25:-125:-22:-7:-4:-7:-0.447754:-0.872559:0.29541:9.1875:3.8125:-7
1562063461281908:-9:-14:-16:3:-5:-6:-3:-6:-0.49707:-0.85498:0.296875:14.625:-13.5:-3.8125
1562063461323908:-2:0:0:-81:-21:-5:-1:-1:-0.470215:-0.798828:0.399902:29.375:-15.875:-7.625
1562063461383908:-1:0:-3:37:-5:-1:4:1:-0.40332:-0.779785:0.414551:10.125:-5.4375:-25.0625
1562063461436908:0:-1:-5:-36:-2:-1:2:9:-0.389648:-0.856445:0.351562:-6.6875:2.0625:-11.5625
1562063461480908:2:1:1:-18:2:3:6:5:-0.384766:-0.915039:0.364746:-3.3125:1.9375:-7.8125
1562063461535908:0:-1:-4:14:2:-2:1:-1:-0.407227:-0.825684:0.37207:6.4375:0.375:0.3125
1562063461581908:0:1:-2:-6:-3:0:2:8:-0.402832:-0.858887:0.379395:-5.1875:-1.5:0.0625
1562063461622908:-1:-2:4:23:5:-2:0:3:-0.403809:-0.84668:0.373047:4.4375:-1.875:-0.375
1562063461683908:0:-1:-2:-1:-1:0:-2:-3:-0.396484:-0.851074:0.383789:3.1875:-1.75:0.625
1562063461735908:0:-3:-6:-8:0:-3:-3:-1:-0.395508:-0.843262:0.38916:2.625:1.5625:-0.5
1562063461780908:-1:2:0:3:-4:-4:-2:-2:-0.399414:-0.859375:0.38623:0:0.75:0.375
1562063461840908:-2:-6:-8:0:1:-1:-3:0:-0.40625:-0.845703:0.387207:-0.75:0.25:0.8125
1562063461886908:2:2:2:4:1:0:5:3:-0.408203:-0.84668:0.387207:0.0625:0.875:0.8125
1562063461938908:-2:-3:-4:0:-1:0:-3:-21:-0.401855:-0.850098:0.384766:0.0625:0.8125:0.1875
1562063461983908:-2:-2:-2:-2:-2:-2:-1:2:-0.399414:-0.854492:0.380371:-0.0625:2.0625:1.5625
1562063462035908:0:0:-2:-8:-5:-4:-1:2:-0.40332:-0.851074:0.380371:-0.375:3:2.625
1562063462083908:-1:0:0:1:-8:-4:-2:0:-0.408691:-0.850098:0.380859:-2.25:2.625:2.5625
1562063462143908:0:0:-4:7:2:0:-1:-2:-0.412598:-0.836426:0.374512:-7.375:2.375:3
1562063462185908:0:-1:0:6:-9:-4:-3:0:-0.409668:-0.851074:0.371094:0.5625:-0.0625:3.875
1562063462245908:0:-1:2:-3:-5:-3:-1:-2:-0.426758:-0.847656:0.369141:-2.375:-2.8125:3.75
1562063462283908:-2:-5:-11:-9:-5:-2:-4:-3:-0.417969:-0.860352:0.361328:-1.125:-0.6875:3.125
1562063462343908:0:-1:-3:3:5:0:2:0:-0.422363:-0.849121:0.368164:-0.9375:-0.1875:2.9375
1562063462395908:-1:-1:-2:0:-4:-3:1:1:-0.429199:-0.841309:0.37207:-2.9375:1.375:2.4375
1562063462444908:-1:-2:-1:-1:0:0:1:1:-0.442383:-0.835449:0.362305:-3.3125:2.6875:1.6875
1562063462486908:0:1:3:-6:-2:-1:-1:0:-0.437012:-0.837402:0.370605:-4.375:2.875:0.5625
1562063462546908:-1:-3:-2:2:-6:2:0:1:-0.431641:-0.842773:0.35791:-4.0625:1.625:-0.125
1562063462598908:-1:1:1:-7:-2:0:-1:-2:-0.418457:-0.850586:0.367676:-4:0.875:-0.1875
1562063462643908:1:0:-1:-6:-3:1:1:0:-0.419434:-0.850098:0.366699:-4.75:0.5:-0.3125
1562063462695908:0:1:4:9:1:-1:-1:-1:-0.418457:-0.859863:0.351074:-5:-0.6875:0.125
1562063462748908:-3:-4:-3:5:-4:-3:-2:-3:-0.416504:-0.863281:0.34668:-2.8125:0:-0.625
1562063462800908:-3:-2:-1:-11:-7:-2:-2:-1:-0.429688:-0.850098:0.339844:-1.5625:1.8125:-2.25
1562063462845908:0:-1:-3:-6:-2:-3:0:-1:-0.434082:-0.853516:0.328613:-1.5625:1.6875:-3
1562063462898908:0:0:-1:0:3:-1:-1:-1:-0.418457:-0.867188:0.327148:-4.25:0.875:-4.875
1562063462946908:-2:-1:-2:4:7:1:-1:-1:-0.416992:-0.859375:0.331055:-7.6875:-0.625:-5.375
1562063462987908:-1:-2:-2:-4:-5:-3:1:-2:-0.418457:-0.876953:0.317383:-8:-0.6875:-5.875
1562063463047908:-1:1:2:-9:0:0:-3:3:-0.421387:-0.869629:0.329102:-6.5:-0.25:-5.1875
1562063463100908:1:-2:-4:0:0:0:2:0:-0.418945:-0.869629:0.336914:-4.4375:-0.375:-3.1875
1562063463145908:-1:-2:-3:-9:-8:0:-2:-2:-0.406738:-0.876465:0.329102:-4.3125:-0.8125:-0.8125
1562063463197908:-2:-2:0:-6:1:-1:0:0:-0.390625:-0.879395:0.318848:0.625:-1.1875:-0.1875
1562063463246908:-1:-1:-1:0:2:-3:-3:-1:-0.376953:-0.885742:0.304688:2.9375:0.1875:-0.625
1562063463288908:-3:-3:-7:1:5:-1:2:-1:-0.375977:-0.890625:0.312012:3.9375:0.6875:0.75
1562063463347908:-1:-4:-2:-6:1:1:-1:-2:-0.378418:-0.895508:0.305664:8.5:1.3125:3.125
1562063463400908:-1:-1:-2:-1:-1:2:1:-1:-0.395996:-0.875488:0.317383:11.625:2.8125:6.6875
1562063463445908:-1:-3:-6:-10:-5:-3:-4:-3:-0.433105:-0.848633:0.338379:8.6875:3.5625:3.5625
1562063463505908:0:-3:-6:-6:-3:0:0:0:-0.445801:-0.842773:0.355957:5.75:0.625:1.375
1562063463546908:-1:-2:-2:-7:-5:-3:-4:-3:-0.45166:-0.846191:0.364746:1.9375:-2.5:-0.3125
1562063463606908:0:-2:3:0:-1:-3:-3:-2:-0.438477:-0.861328:0.371094:-0.75:-3.75:0.375
1562063463648908:1:1:1:3:2:4:3:2:-0.418945:-0.85498:0.364746:-3.375:-2.6875:0.375
1562063463700908:-3:-2:-1:11:-1:-6:-1:-3:-0.407227:-0.866211:0.362305:-2.75:-0.375:0.5
1562063463746908:0:0:3:3:-4:-1:-1:0:-0.385254:-0.876953:0.334961:-0.5:5.75:-0.375
1562063463806908:-2:2:3:0:-2:-1:-1:1:-0.403809:-0.855469:0.352051:3.4375:9.6875:0.875
1562063463857908:0:-1:-6:-1:1:-1:0:1:-0.408203:-0.855469:0.330566:3.625:8.875:2.3125
1562063463903908:-1:-1:0:-1:-3:-1:2:-3:-0.412109:-0.859863:0.320312:3.0625:6.6875:1.3125
1562063463948908:0:-1:0:0:1:-2:-1:-2:-0.425293:-0.863281:0.330078:2.8125:1.1875:0.375
1562063464007908:-1:0:0:1:0:0:-1:0:-0.437988:-0.866699:0.317871:4.375:0.5625:0.6875
1562063464048908:1:0:1:4:0:-2:-2:-1:-0.441406:-0.849609:0.357422:3.125:-0.25:1.5
1562063464108908:0:1:0:-5:2:-2:-1:0:-0.467285:-0.820801:0.366699:1.3125:-2.9375:1.9375
1562063464151908:0:-2:-7:-5:-5:-1:-1:-1:-0.44043:-0.854492:0.34375:-1:-4.9375:-0.8125
1562063464202908:-1:-1:0:-13:-7:0:1:1:-0.42627:-0.856934:0.359863:-0.5625:-4.1875:-1.125
1562063464247908:0:1:2:0:-1:-1:-1:0:-0.432129:-0.846191:0.370117:-0.0625:-2.75:0.125
1562063464308908:-2:-1:0:4:3:-1:1:0:-0.433105:-0.84668:0.363281:-1.25:-1.8125:0.875
1562063464361908:-2:-3:-4:-1:0:1:0:-1:-0.414551:-0.847168:0.35498:-0.5:0:-0.0625
1562063464408908:0:2:4:-2:-3:0:-1:0:-0.397949:-0.862305:0.341309:-1.5625:-0.125:-1.1875
1562063464450908:-4:-4:-4:2:1:-3:-3:-1:-0.398438:-0.866211:0.347656:-0.5:0:-1.6875
1562063464510908:-2:-1:-3:-11:-2:-3:-3:0:-0.411133:-0.865723:0.334961:0.0625:1.1875:-1.9375
1562063464562908:0:-3:2:16:2:2:1:-1:-0.424805:-0.863281:0.347168:3.4375:0.875:-0.125
1562063464608908:0:2:2:8:-1:-1:-2:0:-0.427734:-0.859863:0.362305:3.6875:-0.25:1.6875
1562063464660908:1:0:1:5:-1:1:0:1:-0.436523:-0.851562:0.361328:3.125:-0.375:3.625
1562063464714908:0:2:2:-4:-1:3:0:0:-0.445801:-0.848633:0.365723:1.5625:1.125:3.9375
1562063464751908:0:1:0:-2:-1:1:1:0:-0.445312:-0.835938:0.375:0.0625:1.8125:3.5625
1562063464811908:1:2:5:4:4:-1:-2:1:-0.44043:-0.831543:0.366211:0.3125:2.3125:2.5
1562063464871908:-1:-1:-1:10:3:-2:-1:-1:-0.436035:-0.837402:0.361328:-0.25:1.25:1
1562063464911908:-2:-1:-1:-2:-4:-4:-3:-1:-0.433594:-0.834473:0.352539:-1.375:-0.4375:-0.3125
1562063464953908:1:1:-1:-15:-3:-2:-1:0:-0.426758:-0.843262:0.345703:-2.3125:-2.4375:-1.375
1562063465014908:-1:-1:-2:0:-2:-1:-1:0:-0.414062:-0.856445:0.339355:1.5:-3.1875:-1.5
1562063465065908:0:-1:-5:-10:-1:-1:-2:0:-0.416504:-0.861816:0.354004:2.8125:-2.5625:-1.25
1562063465110908:-1:0:-1:2:1:-1:0:-1:-0.436523:-0.848633:0.373535:5.0625:-2.3125:1.1875
1562063465163908:-2:-2:-6:-5:-6:-4:-2:-3:-0.444336:-0.84375:0.378906:2.75:-2.125:1.8125
1562063465211908:1:-2:2:13:0:0:0:-1:-0.44873:-0.834473:0.383301:0.3125:-1.375:0.6875
1562063465269908:-1:-3:-4:-1:-3:-3:-1:-3:-0.442383:-0.83252:0.387695:-0.125:-0.375:-0.75
1562063465313908:-2:0:0:-3:0:0:-1:-1:-0.435059:-0.847656:0.377441:-2.5:0.375:-1.25
1562063465366908:-1:0:-1:-13:1:-1:-2:-2:-0.42334:-0.835449:0.369629:-1.0625:1.75:-1.5
1562063465410908:1:1:1:-17:-5:-3:-2:0:-0.412109:-0.851074:0.351074:-1.4375:0.4375:-1.25
1562063465470908:5:-2:-7:-21:-10:-3:-2:0:-0.405762:-0.851074:0.346191:-1.1875:-0.625:-2.25
1562063465510908:-1:0:-2:-1:-1:1:-2:-7:-0.411133:-0.854492:0.362793:-0.75:-3.125:-2.0625
1562063465568908:-4:0:6:-2:1:-3:-2:-6:-0.427734:-0.850098:0.362793:3:-3.4375:-1.3125
1562063465613908:0:1:1:10:4:-1:-1:-2:-0.438965:-0.846191:0.376465:2.625:-3.0625:-0.0625
1562063465666908:9:2:0:-2:-1:2:-2:-13:-0.44043:-0.837891:0.388672:3.1875:-1.9375:0.1875
1562063465710908:62:4:0:-1:-2:-4:-2:-39:-0.438965:-0.820312:0.404785:-5.8125:-0.375:3.9375
1562063465770908:-19:-6:-11:4:6:-1:28:38:-0.44043:-0.837402:0.459961:-12.125:24:5.1875
1562063465816908:70:82:19:10:-6:0:44:58:-0.476562:-0.90625:0.13916:-40.125:5.375:6.0625
1562063465868908:-32:4:-14:-16:-8:-8:-37:-64:-0.239258:-1.07324:0.233887:-6:-43.625:13.3125
1562063465913908:3:-59:-19:-3:-5:9:56:106:-0.564941:-0.777832:0.415527:-1.25:-14.6875:27.5625
1562063465964908:23:-20:-47:-20:-15:-17:-57:-40:-0.427246:-0.692871:0.398438:10.9375:-5.6875:16.6875
1562063466025908:-46:-46:-12:17:7:-6:-128:-51:-0.467773:-0.869141:0.374023:-18.9375:-3.6875:-1.125
1562063466074908:-38:-64:13:-9:2:1:-38:-57:-0.482422:-0.753418:0.313477:8.375:1.75:-5.1875
1562063466116908:-36:36:17:7:-6:-28:-128:-52:-0.452148:-0.875977:0.36084:3.5:-5.8125:-5.625
1562063466168908:107:-28:7:-4:-11:-11:-128:-66:-0.442383:-0.807129:0.36377:1.3125:-5.5625:-3.4375
1562063466213908:-100:-42:-23:-9:-4:-7:9:-48:-0.407227:-0.925781:0.388184:-7.9375:1.375:-1
1562063466273908:33:16:-2:-2:-2:2:14:26:-0.438477:-0.766602:0.347168:12.25:5.625:0.5
1562063466325908:1:9:8:24:15:-4:2:0:-0.449219:-0.905273:0.412598:-17.6875:5.75:-35.9375
1562063466373908:8:5:-3:-10:20:-1:7:9:-0.398438:-0.895996:0.382812:-2.1875:14.4375:-11.375
1562063466415908:5:4:-3:59:25:6:-3:2:-0.473145:-0.911621:0.228516:16.6875:-12.0625:17.4375
1562063466475908:-4:2:11:62:-1:-2:-1:0:-0.507812:-0.82959:0.307129:42.8125:-21.125:11.25
1562063466513908:14:-2:5:10:7:0:0:-4:-0.390137:-0.746582:0.432129:-4.625:-11.5:-18.75
1562063466572908:-2:0:2:-28:-3:-1:0:0:-0.380859:-0.899414:0.414062:-11.1875:-4.4375:-12.625
1562063466626908:5:-2:-4:-6:-2:-1:5:3:-0.407227:-0.859375:0.374512:1.1875:1.875:-2.5625
1562063466670908:-7:-1:-1:3:1:2:0:-16:-0.411133:-0.835449:0.388672:-0.5625:-1.75:1.5625
1562063466716908:-1:1:1:10:1:-1:-2:-1:-0.415527:-0.841309:0.404297:-0.0625:-0.5625:-0.125
1562063466776908:-2:0:0:5:6:-2:-3:-3:-0.411133:-0.838867:0.392578:1.375:-0.3125:-1.0625
1562063466816908:2:1:4:4:3:5:-1:-4:-0.413574:-0.839355:0.393555:-0.25:-1.625:-1.25
1562063466876908:-12:-1:2:24:-9:-4:-2:-3:-0.405762:-0.854492:0.378906:0.125:0.5:-1.875
1562063466919908:5:-2:-5:1:0:0:0:0:-0.384277:-0.857422:0.380371:-0.4375:1:-1.5625
1562063466978908:1:-2:0:0:-6:-4:-3:-1:-0.39502:-0.841309:0.377441:-0.375:1.25:-0.4375
1562063467029908:9:3:4:7:1:2:1:2:-0.410645:-0.847168:0.385254:0.9375:0.1875:0.9375
1562063467078908:0:0:4:-4:0:-3:-1:0:-0.416016:-0.845703:0.388672:0.6875:-0.0625:1.75
1562063467128908:-2:-1:-2:0:-1:-3:-2:-3:-0.405762:-0.846191:0.387695:-0.125:0.625:0.75
1562063467172908:0:-2:4:-5:5:0:2:1:-0.412109:-0.83252:0.397949:-0.75:0.25:-0.875
1562063467221908:-2:-1:-1:-3:0:2:-1:-2:-0.409668:-0.842773:0.393555:-2.3125:-0.5:-2
1562063467280908:-2:-3:-4:-2:-2:-1:1:0:-0.403809:-0.850586:0.387207:-1.125:-0.375:-1.3125
1562063467330908:-2:1:0:5:0:-3:0:-2:-0.398926:-0.856445:0.385254:1.125:0.8125:-0.8125
1562063467378908:-1:-2:-1:9:-7:-3:-1:-1:-0.401855:-0.845703:0.387207:-1.4375:1.5625:-0.1875
1562063467427908:2:2:0:-1:-2:-1:-1:1:-0.402832:-0.85498:0.380371:0.625:2.4375:0.4375
1562063467484908:0:-1:-4:-7:0:-1:-1:-1:-0.402832:-0.849609:0.384277:1.25:1.4375:0.5625
1562063467533908:-1:-1:-4:-3:2:1:-1:-1:-0.404297:-0.845703:0.388184:3.0625:1.3125:0.9375
1562063467581908:0:0:4:-10:0:0:2:-2:-0.405273:-0.836914:0.38916:0.3125:0.125:0.625
1562063467629908:-1:3:3:-5:-3:0:0:-1:-0.411133:-0.848633:0.389648:-0.6875:0.6875:0.625
1562063467681908:-2:-3:-8:-4:-8:-1:1:-2:-0.420898:-0.830078:0.387695:0.9375:1.4375:1.25
1562063467723908:0:2:3:-2:0:2:1:1:-0.421387:-0.838379:0.385254:0:0.0625:1.125
1562063467783908:1:2:5:-4:3:1:0:2:-0.405273:-0.84082:0.373535:-0.0625:0.25:-0.8125
1562063467833908:0:-1:-3:0:7:4:3:2:-0.39502:-0.847656:0.378418:-0.875:-1.375:-1.9375
1562063467881908:-1:-1:-4:2:-3:-1:0:0:-0.390625:-0.856445:0.383301:0.75:-1.625:-2.0625
1562063467930908:-1:-2:-1:-6:-2:-2:-2:-1:-0.400879:-0.85498:0.381836:0.125:-1.375:-1.875
1562063467981908:1:4:7:1:3:-3:-1:-2:-0.405762:-0.846191:0.384277:0:-1:-1.5
1562063468036908:1:0:1:-15:-7:-2:-2:1:-0.402344:-0.850586:0.395508:-0.5:-1.75:-1.0625
1562063468083908:1:0:1:-11:0:0:-1:0:-0.400391:-0.847168:0.40332:-1.0625:-2.8125:-0.625
1562063468133908:-1:-1:-2:-15:-4:0:-1:0:-0.399902:-0.845215:0.394043:-0.8125:-2.1875:-1.125
1562063468180908:0:-2:-1:-1:-2:-4:-2:-2:-0.398926:-0.850098:0.398438:1:-2.1875:-0.8125
1562063468229908:0:1:1:5:6:3:0:-1:-0.39502:-0.841797:0.397461:1.1875:-1.1875:-0.625
1562063468290908:0:-2:3:7:1:1:-4:-2:-0.400879:-0.843262:0.400879:-1.125:-0.8125:-0.4375
1562063468341908:-1:-4:-7:5:3:-1:1:-1:-0.391113:-0.847168:0.390625:0.375:0.0625:0.3125
1562063468383908:-1:-1:-5:-2:2:4:1:0:-0.382812:-0.841309:0.396973:-0.6875:-0.375:-0.1875
1562063468443908:1:-1:-4:-4:-4:-2:-1:-3:-0.390625:-0.858398:0.383789:0.5625:-0.25:-0.25
1562063468493908:2:3:5:1:2:0:0:-1:-0.387207:-0.855957:0.388672:0.8125:0.125:-0.125
1562063468541908:-1:1:0:-8:0:-2:-2:1:-0.399414:-0.852051:0.393555:0.625:0.5:1.25
1562063468583908:0:-2:-2:8:1:0:0:0:-0.40625:-0.851074:0.389648:1.4375:0.625:1.8125
1562063468642908:1:-2:-1:1:2:1:0:-1:-0.396973:-0.840332:0.399902:-0.0625:0.0625:0.875
1562063468683908:0:-1:-4:-1:-2:-5:-3:-2:-0.39502:-0.842773:0.396484:0.0625:-0.625:0.125
1562063468742908:0:0:0:-4:0:-2:0:2:-0.399414:-0.842285:0.395996:-1.5625:-0.875:-0.125
1562063468792908:-2:0:1:-10:-8:-3:-3:-1:-0.394531:-0.848633:0.391602:0.125:-0.0625:-0.4375
1562063468844908:-2:0:0:-6:-2:0:-1:0:-0.392578:-0.851074:0.398438:-0.4375:0.375:-0.5625
1562063468882908:-1:-2:-3:6:3:-1:-2:-1:-0.394531:-0.856445:0.387207:0.4375:0.8125:-0.375
1562063468943908:1:0:4:6:2:-1:1:0:-0.393555:-0.847168:0.39502:-0.6875:0.375:0.5
1562063468996908:-1:-1:0:9:-1:0:2:0:-0.397461:-0.841309:0.393066:1.625:0.75:0.6875
1562063469043908:0:-1:1:2:3:4:0:1:-0.396484:-0.848633:0.39502:-0.75:-0.0625:-0.1875
1562063469092908:-1:-3:-4:3:0:1:-2:0:-0.397461:-0.847168:0.383789:0.125:-0.4375:-0.5625
1562063469143908:1:0:0:-7:0:-1:1:1:-0.39502:-0.847168:0.396973:-0.4375:-0.9375:-0.9375
1562063469182908:0:-1:-3:3:0:-2:-3:-1:-0.399902:-0.847656:0.397949:0.375:-0.6875:-0.5
1562063469243908:-3:-1:1:2:2:-1:-2:-1:-0.392578:-0.851562:0.396973:-0.5:-0.3125:-0.1875
1562063469294908:-1:0:2:-1:-1:3:-1:0:-0.393066:-0.845703:0.39209:0.375:-0.1875:-0.0625
1562063469344908:0:-1:0:12:5:1:2:-1:-0.392578:-0.847168:0.396973:0.4375:-0.125:-0.1875
1562063469392908:-1:1:5:0:-8:-3:0:1:-0.395508:-0.839355:0.400391:0:-0.5625:-0.1875
1562063469447908:-1:-3:-7:-4:0:-1:-1:-3:-0.397461:-0.853027:0.397949:0.5:-0.4375:0.5
1562063469498908:-2:-2:-5:2:-1:-1:-1:-1:-0.386719:-0.847656:0.395996:0.625:-0.0625:-0.5
1562063469545908:-2:0:-1:-2:-1:-1:1:0:-0.396484:-0.851562:0.399414:-0.5625:-0.3125:-0.5625
1562063469595908:-3:-1:-2:-4:1:-1:-3:-1:-0.392578:-0.844727:0.395996:1.5:-0.1875:-0.3125
1562063469654908:1:3:4:-2:1:0:-4:-1:-0.390625:-0.848145:0.394043:0.6875:0:0.1875
1562063469706908:-1:-1:1:-1:-1:2:-1:-1:-0.388672:-0.848145:0.391602:1.1875:-0.25:-0.3125
1562063469744908:-1:2:2:-1:4:-2:0:-2:-0.389648:-0.849121:0.394531:0:-0.1875:-0.75
1562063469804908:-2:-1:-1:-3:-2:-2:0:1:-0.393066:-0.849609:0.402344:-0.5:-0.8125:-0.125
1562063469845908:0:-1:1:-4:-4:-3:-2:-1:-0.389648:-0.849121:0.399902:0.4375:-0.25:-0.0625
1562063469905908:-1:-2:-1:-5:-2:-2:-2:-1:-0.394043:-0.846191:0.398926:-0.8125:-0.1875:0.0625
1562063469955908:0:-1:1:1:-2:-3:0:-2:-0.389648:-0.849121:0.402832:0.125:-0.0625:-0.25
1562063470006908:0:-1:-2:5:0:-3:-4:0:-0.390137:-0.849121:0.397949:-0.25:-0.1875:-0.5625
1562063470044908:0:-1:1:-2:-2:-3:-2:0:-0.391113:-0.853027:0.40625:0.5:-0.5625:0.25
1562063470105908:0:-3:-2:-3:-3:-3:-1:1:-0.386719:-0.850098:0.395996:-0.1875:-0.5625:0.0625
1562063470158908:-1:-1:0:7:-1:-2:-2:-1:-0.383789:-0.846191:0.399902:0.3125:-0.3125:0
1562063470206908:-1:0:1:6:2:0:-2:-3:-0.387207:-0.847168:0.400391:0.4375:-0.0625:-0.1875
1562063470254908:-1:-1:-1:-2:-2:-2:-2:0:-0.391602:-0.843262:0.399414:0.125:-0.4375:0
1562063470307908:-1:0:-2:-3:0:-1:-2:0:-0.387695:-0.848633:0.401367:-0.6875:-0.8125:0.25
1562063470360908:0:1:-2:4:-3:1:2:-1:-0.390137:-0.842773:0.401367:-0.25:-1.375:0.875
1562063470404908:0:-1:2:7:5:1:-1:-1:-0.384277:-0.850586:0.394531:-0.6875:-0.625:0.625
1562063470457908:0:1:1:5:-2:-1:0:-1:-0.392578:-0.846191:0.397949:-1.0625:-0.1875:-0.625
1562063470508908:-1:-1:-3:-1:-1:1:-2:-1:-0.389648:-0.850586:0.404785:-1.375:-0.9375:-0.5
1562063470564908:0:-2:-1:-5:-2:-2:-1:0:-0.390137:-0.84668:0.404785:0.5:-0.8125:-0.125
1562063470607908:-1:0:2:-4:2:0:0:-1:-0.379395:-0.858887:0.396973:-0.4375:-0.3125:-0.1875
1562063470661908:1:2:2:-4:-3:-2:-2:-3:-0.378906:-0.849121:0.400879:-0.625:0.0625:-0.4375
1562063470705908:-1:-2:-4:13:1:-2:-1:-3:-0.388672:-0.848145:0.398926:0.125:0.125:-0.5625
1562063470764908:-6:-4:-2:7:1:-1:-2:3:-0.385742:-0.853516:0.396973:1.25:0.125:0.3125
1562063470809908:11:-10:-7:-3:1:-2:-2:-2:-0.38916:-0.841797:0.407227:0.625:-0.125:0.1875
1562063470864908:11:0:-17:-8:-2:-3:-25:-52:-0.397461:-0.827148:0.420898:-2.6875:1.9375:2.9375
1562063470907908:77:-35:-8:-3:-5:-9:-63:63:-0.397949:-0.803711:0.450684:-11.5:20.375:2.6875
1562063470968908:71:-38:-15:-4:4:43:122:41:-0.425293:-0.890625:0.248047:-31.75:15.6875:5.1875
1562063471008908:-119:-92:-52:-16:-7:4:64:58:-0.255859:-1.03369:0.250977:-9.3125:-18.375:15.9375
1562063471068908:111:65:47:22:23:14:-52:60:-0.594238:-0.801758:0.383301:0.0625:-10.375:21.6875
1562063471120908:15:-13:-26:7:-2:-5:36:68:-0.437988:-0.77832:0.355469:-6.625:-16.125:15.5
1562063471169908:-95:-45:-1:-15:2:20:115:-60:-0.428711:-0.883301:0.395996:-17.5:-18.3125:5.375
1562063471207908:-80:-15:-1:-8:-6:-21:-65:5:-0.405762:-0.791016:0.372559:11.375:-9.1875:0.9375
1562063471267908:16:-7:-3:-7:-14:-1:-12:14:-0.373535:-0.898438:0.394043:-4.375:-8.8125:-13.25
1562063471320908:4:-11:6:56:6:-5:-17:-1:-0.369629:-0.824219:0.422363:-3.875:3.875:-27.8125
1562063471368908:5:-2:-3:-24:49:3:-1:2:-0.35498:-0.872559:0.401855:-12.5625:15.875:-26.625
1562063471410908:-8:-9:-9:100:-39:-16:-7:-10:-0.399414:-0.973633:0.304199:-8.625:5.625:-2.8125
1562063471470908:2:3:-1:-18:-12:2:2:1:-0.481445:-0.872559:0.248047:8.625:-20.25:9.625
1562063471523908:-1:-5:-1:30:-5:-7:-4:-2:-0.430176:-0.825684:0.412109:38.375:-16.75:-0.375
1562063471567908:1:1:0:31:-2:-3:6:7:-0.291016:-0.841309:0.391113:-17.75:-5.9375:-10.25
1562063471621908:0:-1:5:30:-4:-1:0:0:-0.345703:-0.929688:0.35498:6.25:-0.6875:-3
1562063471670908:-1:-1:5:5:-9:-1:9:2:-0.358398:-0.861328:0.361816:5.0625:-5.4375:3.375
1562063471710908:6:-1:-1:2:1:-1:2:3:-0.368164:-0.868652:0.39502:1.6875:-3.75:3.6875
1562063471770908:1:0:-1:-7:1:-2:1:3:-0.374023:-0.853027:0.399902:3.375:-2.5625:3.9375
1562063471823908:-1:-2:6:27:-3:-6:0:-2:-0.372559:-0.844238:0.387695:3.3125:-1.0625:2.375
1562063471868908:0:-1:-4:-9:-1:3:1:-3:-0.356445:-0.869141:0.390625:1.875:1.125:-0.8125
1562063471919908:-1:-1:-3:-14:0:1:-3:-2:-0.355957:-0.867188:0.401855:2.25:0.125:-0.625
1562063471973908:-2:-1:3:3:0:2:-4:-3:-0.366211:-0.865723:0.397949:1.0625:0.6875:-0.75
1562063472025908:-1:0:1:-3:-1:-3:-1:-1:-0.364746:-0.866699:0.399902:2.125:-0.25:0.25
1562063472070908:0:0:-2:4:0:0:-2:-3:-0.361816:-0.862793:0.394531:0.4375:-0.8125:0.5
1562063472123908:0:0:1:-1:1:1:0:-2:-0.351074:-0.854004:0.398438:0.125:-0.5:0.1875
1562063472170908:-1:-3:-7:-4:-2:-2:-2:-4:-0.360352:-0.86084:0.398926:2.875:0.9375:-0.0625
1562063472223908:-1:-4:-6:-13:3:2:1:-3:-0.361328:-0.872559:0.396973:-1.0625:0.8125:-0.1875
1562063472272908:-1:-1:0:11:-8:-3:-2:-3:-0.360352:-0.864746:0.394531:2.5:1.3125:-0.125
1562063472325908:0:0:1:-4:-7:-2:2:0:-0.366211:-0.850098:0.402344:1.1875:0.9375:-0.375
1562063472369908:-1:-1:-3:13:3:2:0:-2:-0.363281:-0.862305:0.403809:-0.375:-0.125:-0.25
1562063472423908:0:0:5:0:-1:1:1:1:-0.363281:-0.858398:0.403809:1.25:-0.625:-0.125
1562063472473908:-2:1:0:-3:0:-2:-1:1:-0.36084:-0.855469:0.40625:1.1875:0.3125:-0.6875
1562063472528908:0:-2:-2:-9:-5:-4:-3:-2:-0.356934:-0.858887:0.402344:0.1875:-0.25:-0.5
1562063472571908:-1:1:1:1:-7:-1:-4:-2:-0.362793:-0.858887:0.400879:-2.9375:0.4375:-0.8125
1562063472625908:-4:-3:-4:-9:-3:-2:-2:-2:-0.361328:-0.870117:0.398926:-0.75:0.6875:0.375
1562063472670908:-1:-3:-4:5:-2:0:2:-1:-0.365234:-0.851074:0.402344:1.4375:0.5625:0.75
1562063472729908:-2:1:0:-1:-2:-1:1:-1:-0.356445:-0.866699:0.401855:0.1875:-0.25:0.625
1562063472774908:0:0:-1:-12:-1:-1:-1:-1:-0.355957:-0.852539:0.39502:1.0625:-0.4375:0.0625
1562063472829908:2:-1:-1:3:2:-1:-2:0:-0.359375:-0.85498:0.401855:-1.0625:-0.25:0.0625
1562063472871908:0:-2:-1:0:2:0:1:0:-0.366211:-0.857422:0.401855:-0.5625:0.1875:0.75
1562063472932908:1:4:4:9:5:1:-1:0:-0.362305:-0.866699:0.401367:-0.625:0.5:1.4375
1562063472973908:0:-2:-4:-9:-2:-1:0:-1:-0.362793:-0.855957:0.395996:1.5:0.6875:1.125
1562063473032908:-3:-2:-7:-6:2:1:1:0:-0.361816:-0.862305:0.397949:0.0625:0.125:0.625
1562063473082908:0:-1:1:9:1:3:0:0:-0.368164:-0.852051:0.404297:2.1875:0.5:0.3125
1562063473127908:1:2:5:-3:-8:2:4:-1:-0.366211:-0.853027:0.401855:0.625:-0.1875:0.4375
1562063473172908:-3:-2:-4:-4:2:-1:-3:-2:-0.35791:-0.861816:0.397461:1.3125:-0.0625:0.3125
1562063473232908:0:2:4:11:2:1:1:0:-0.36377:-0.854492:0.414551:-0.625:-0.1875:0.125
1562063473272908:-2:-1:-2:1:-3:-2:-2:-2:-0.365723:-0.859375:0.408691:2.6875:0:0.8125
1562063473330908:0:-3:-1:-6:-3:-3:0:1:-0.366699:-0.864258:0.401855:-1.375:-0.75:0.5
1562063473375908:-1:0:-1:-7:-1:-5:-2:-2:-0.35791:-0.859375:0.407715:1.625:0.0625:0.875
1562063473429908:-1:-2:0:2:0:-2:-3:0:-0.368652:-0.848633:0.401367:0.8125:0.25:0
1562063473471908:-2:0:0:3:1:1:-1:-1:-0.366211:-0.849121:0.404297:-0.6875:-0.8125:-0.4375
1562063473531908:-1:-2:0:12:-2:-2:-3:0:-0.363281:-0.861816:0.401367:-0.75:-0.75:-0.4375
1562063473575908:-1:-1:-1:-2:-2:0:0:0:-0.369141:-0.853516:0.403809:-0.3125:-0.9375:-0.1875
1562063473631908:2:0:1:-14:-5:-2:-2:-1:-0.360352:-0.849121:0.405762:0.4375:-0.625:-0.625
1562063473674908:-1:-2:-5:-3:3:-3:-2:-1:-0.366211:-0.856934:0.408203:-1.25:-1.3125:-0.9375
1562063473734908:1:1:1:0:-7:-2:0:0:-0.362793:-0.859375:0.408691:-0.3125:-0.6875:-0.375
1562063473772908:-2:0:-1:-3:1:-1:-2:1:-0.356934:-0.852539:0.405762:-0.875:-0.8125:0
1562063473832908:0:1:-1:0:2:0:-2:-2:-0.35498:-0.855957:0.404785:-0.6875:-0.25:0.3125
1562063473873908:-2:1:5:0:-2:1:1:0:-0.361816:-0.866699:0.408203:-1.3125:-0.1875:0.25
1562063473933908:0:-1:0:2:3:0:0:-1:-0.362793:-0.856934:0.403809:-0.125:0:0.5
1562063473974908:0:-3:-5:-17:-1:-2:2:0:-0.359863:-0.859863:0.40625:-0.8125:-0.25:0.375
1562063474034908:0:0:-1:3:-1:-1:0:0:-0.359863:-0.849609:0.410156:0.3125:0:0.4375
1562063474075908:1:-2:-3:7:1:-1:-1:0:-0.358398:-0.857422:0.407227:-0.625:0.5:0
1562063474132908:0:-3:-2:9:6:-3:-4:-4:-0.369629:-0.853516:0.405762:-0.3125:0.875:0.5
1562063474177908:-1:0:-2:1:-4:0:1:0:-0.364258:-0.856934:0.40332:1.125:0.8125:1.0625
1562063474229908:0:1:4:-2:1:2:0:-2:-0.357422:-0.856445:0.399902:-0.8125:0.1875:0.6875
1562063474275908:0:0:-1:1:-1:0:-1:-1:-0.364258:-0.853516:0.400879:0.8125:0.1875:0.5
1562063474335908:0:-1:0:-7:-6:0:0:-2:-0.365723:-0.86084:0.401367:-0.6875:0.4375:0.5625
1562063474375908:-1:0:-2:-8:-3:0:0:0:-0.367188:-0.850098:0.406738:0.5625:0:0.625
1562063474435908:-2:-2:-3:-1:2:-1:0:1:-0.367676:-0.860352:0.405762:0.5:-0.375:0.0625
1562063474476908:2:-2:-3:-7:-7:-2:0:0:-0.367188:-0.857422:0.401367:-0.625:-0.3125:-0.125
1562063474537908:-3:-3:-3:5:-7:0:-2:-2:-0.361328:-0.857422:0.401855:1.8125:0.25:0.375
1562063474589908:-3:-3:-1:-1:-3:-4:-1:0:-0.359375:-0.860352:0.40918:-1.125:-0.6875:-0.125
1562063474634908:-2:3:2:5:4:0:1:-1:-0.364258:-0.859375:0.412598:1.25:-0.3125:0.6875
1562063474690908:0:1:1:-1:3:1:0:1:-0.361328:-0.85498:0.405762:0.6875:0.4375:0.3125
1562063474734908:0:1:0:-6:4:0:0:0:-0.367676:-0.852051:0.398438:-0.25:0.1875:0.125
1562063474792908:-2:0:1:0:-1:-2:0:-1:-0.366699:-0.854004:0.412109:0.875:-0.5:0.0625
1562063474836908:0:-1:2:10:0:0:0:-1:-0.366699:-0.856445:0.405273:-0.625:-0.4375:-0.1875
1562063474890908:0:-1:-4:10:1:-2:-2:-1:-0.368652:-0.853027:0.40918:0.375:-0.6875:0.125
1562063474934908:-1:1:-2:3:-8:1:0:0:-0.365234:-0.856934:0.407715:-0.25:-0.5:0.1875
1562063474994908:-2:-1:-1:4:6:2:-1:-2:-0.357422:-0.852539:0.411133:0.3125:-0.3125:-0.25
1562063475040908:0:1:-1:-2:1:1:-3:-3:-0.358887:-0.855957:0.408691:-0.6875:-0.625:-0.4375
1562063475099908:-1:-1:-1:2:2:-1:1:0:-0.366699:-0.848633:0.408203:0.3125:-0.6875:0.25
1562063475137908:-1:-2:-6:-17:-5:-1:1:0:-0.355957:-0.85791:0.409668:1.125:0.3125:0.25
1562063475197908:0:0:3:-7:-2:0:-1:1:-0.36084:-0.861328:0.40625:0.4375:-0.0625:0
1562063475249908:0:-2:1:0:3:0:0:-1:-0.370605:-0.853027:0.411133:0.8125:0.1875:-0.25
1562063475294908:0:0:3:8:-7:0:-1:0:-0.364746:-0.852051:0.412109:0.8125:-0.0625:0.125
1562063475339908:-1:-2:-1:1:-1:0:1:1:-0.363281:-0.850098:0.40918:0.5625:-0.375:0.1875
1562063475399908:-1:-1:-2:13:-1:-1:-2:-2:-0.364258:-0.859863:0.407715:-0.0625:-0.5:0.375
1562063475437908:0:0:-1:6:2:-1:0:-1:-0.358398:-0.852051:0.413574:0.375:0.125:0.1875
1562063475496908:-1:-1:-3:5:2:0:-2:0:-0.362305:-0.852051:0.416016:0.8125:0.125:0.9375
1562063475557908:1:-1:1:-1:1:-3:-2:-3:-0.369141:-0.847656:0.413086:0.625:0.1875:0.3125
1562063475597908:-2:-2:-7:-14:-4:-1:-2:-1:-0.36377:-0.853027:0.416504:-0.25:-0.3125:0.125
1562063475640908:-1:-1:-4:8:0:0:-1:-1:-0.364258:-0.863281:0.40918:0.5:-0.25:0.125
1562063475699908:-2:-2:0:10:0:-3:1:-1:-0.366699:-0.850098:0.418457:0.375:0:0.125
1562063475752908:3:-2:-2:3:-5:0:5:13:-0.361328:-0.853516:0.411621:-0.875:-0.75:-0.0625
1562063475796908:-33:-16:2:-4:2:1:7:61:-0.385742:-0.847168:0.435547:0.125:1.3125:4.75
1562063475857908:105:7:17:9:11:11:9:33:-0.378906:-0.860352:0.455078:-10.4375:2.9375:10.3125
1562063475897908:60:63:2:-2:4:11:68:11:-0.432617:-0.756348:0.431152:-13.25:46.25:10.5625
1562063475958908:-128:-35:35:23:20:30:93:-81:-0.140625:-1.16455:0.188965:-18.75:-31.9375:11.375
1562063475999908:51:54:12:5:3:7:-13:-35:-0.829102:-0.763184:0.504395:-1.6875:9.75:18.9375
1562063476055908:56:96:16:50:-9:-22:-110:26:-0.29248:-0.631836:0.446289:27.125:19.375:0.3125
1562063476108908:21:23:-5:27:6:1:1:26:-0.505859:-0.772461:0.376953:-34.625:3.125:-20.75
1562063476159908:11:-69:11:63:9:27:127:-57:-0.494629:-0.771484:0.28125:20.375:2.4375:-8.5
1562063476202908:68:44:12:-27:1:-8:-90:-13:-0.347656:-1.00439:0.39209:-11.625:-9.8125:-10.625
1562063476254908:66:-15:-17:8:-11:-3:15:-13:-0.391113:-0.825684:0.410156:13.6875:-2.125:0.9375
1562063476299908:-55:-12:-2:9:-18:-6:11:5:-0.352539:-0.871582:0.414062:-21.1875:3.125:-15.5
1562063476359908:-13:-2:-15:-128:-15:3:9:4:-0.371094:-0.897461:0.408203:-1.875:10.6875:-21.6875
1562063476400908:-15:-4:-5:28:15:-9:-6:-1:-0.387695:-0.887207:0.325195:-18.3125:8.3125:-8.875
1562063476463908:-3:3:7:21:33:1:-1:1:-0.484375:-0.914551:0.24707:25.3125:-14.75:12.75
1562063476502908:-1:1:-3:-38:-6:-1:-2:1:-0.390137:-0.721191:0.437012:29.5625:-14.25:-13.6875
1562063476554908:-7:2:-1:24:-4:-3:-7:-15:-0.302246:-0.887207:0.450684:-6.25:0:-18.375
1562063476599908:-1:-3:3:6:-2:-9:-4:-3:-0.337402:-0.898926:0.367188:-9.3125:-2.1875:-4
1562063476662908:-2:-2:-3:-8:1:-1:3:3:-0.358887:-0.898438:0.370605:-0.25:-5.75:0.4375
1562063476712908:0:-1:7:35:-5:-4:-5:0:-0.373047:-0.842285:0.424316:-1.8125:-4.875:2.125
1562063476760908:-1:2:2:-5:-1:2:-2:-15:-0.351562:-0.859863:0.402344:0.0625:-3.0625:0.6875
1562063476801908:-1:-2:-5:5:2:-1:3:5:-0.345215:-0.86084:0.400879:1.5:-2.625:-0.25
1562063476862908:-2:-1:0:0:0:0:4:4:-0.348145:-0.880371:0.401855:2.4375:-0.375:0.8125
1562063476915908:0:1:4:-7:7:4:6:3:-0.356934:-0.865234:0.412598:-0.0625:1.375:1.125
1562063476960908:-1:0:0:-1:-2:-1:1:2:-0.367188:-0.85791:0.401855:0.875:-0.375:2.8125
1562063477012908:0:1:0:-9:-2:-2:-1:2:-0.362305:-0.854004:0.403809:1:-0.0625:1.625
1562063477065908:0:-1:-4:-2:-1:-2:1:-2:-0.35791:-0.854004:0.410645:0:-0.75:0.125
1562063477116908:0:1:-4:-13:7:3:2:0:-0.354004:-0.861816:0.40332:0.6875:-0.5625:-0.25
1562063477162908:-1:-1:0:0:2:3:0:0:-0.361328:-0.861328:0.414551:-2.0625:-0.5625:-0.625
1562063477217908:-2:-2:-3:-11:-16:-4:-3:-4:-0.357422:-0.862793:0.402832:1.1875:-0.875:-0.0625
1562063477262908:-2:-1:-1:-1:-1:-4:-1:-1:-0.361816:-0.857422:0.406738:-2.125:-1.375:-0.5625
1562063477320908:-1:-3:-3:1:1:1:1:-1:-0.352051:-0.858398:0.411621:0.25:-2.4375:-0.375
1562063477364908:-1:-1:2:2:-4:-1:-2:0:-0.354492:-0.852051:0.413574:-1.0625:-1.4375:-1.1875
1562063477416908:-1:-1:-2:2:-3:1:0:-1:-0.353027:-0.85498:0.412109:-0.875:-1.375:-1.625
1562063477461908:-1:-2:-3:-6:0:-1:-2:0:-0.352051:-0.870117:0.407227:-2.1875:-0.4375:-1
1562063477521908:-2:0:5:-8:-3:0:1:-2:-0.351074:-0.861816:0.409668:-0.75:0.3125:-0.8125
1562063477562908:1:0:0:8:2:0:0:1:-0.34375:-0.862305:0.410156:-0.25:0:-0.3125
1562063477622908:0:-1:-2:-12:2:-1:0:-1:-0.342773:-0.866699:0.411133:0.4375:0.6875:0.0625
1562063477665908:0:-1:-3:3:-3:-3:-2:0:-0.349609:-0.86084:0.403809:2.4375:1.5625:1.5625
1562063477724908:-2:-2:0:-3:-2:-3:-2:-2:-0.352051:-0.848145:0.417969:-0.125:1.625:1.75
1562063477762908:-1:-1:0:2:0:0:-1:0:-0.356445:-0.853516:0.405273:0.8125:2.3125:2.1875
1562063477821908:-1:-2:-2:-23:-5:-2:-1:-1:-0.362305:-0.853027:0.410645:-1:1.75:2
1562063477874908:0:-1:-3:-3:4:1:-1:1:-0.356934:-0.853516:0.405762:1:1.5625:1.625
1562063477919908:-2:-1:-1:-11:-5:-3:-1:-1:-0.35791:-0.853516:0.407715:-0.75:1.125:0.6875
1562063477964908:0:1:4:3:4:-1:-1:-1:-0.35791:-0.859375:0.405273:1.4375:1.6875:0.625
1562063478025908:0:0:-3:-16:-10:0:1:0:-0.365723:-0.854004:0.404297:-0.625:1.3125:0.6875
1562063478065908:-2:-5:-7:0:-1:-4:-3:-4:-0.368164:-0.853027:0.404785:0.375:0.6875:0.6875
1562063478125908:-2:-3:0:6:3:-1:-3:-3:-0.365723:-0.852539:0.399414:-0.5:-0.4375:0
1562063478168908:-1:0:0:-6:-2:-1:1:0:-0.366699:-0.850586:0.404785:0.4375:-1.25:-0.125
1562063478219908:0:-1:-2:-2:0:1:-1:0:-0.360352:-0.856934:0.407227:-0.3125:-1.0625:-0.875
1562063478279908:-2:0:-1:5:0:-1:-3:-2:-0.356934:-0.852051:0.413574:0.5:-1.125:-0.5
1562063478324908:-1:-1:-2:-7:-2:-2:-1:-2:-0.359863:-0.858398:0.403809:-0.75:-1.125:-0.4375
1562063478376908:-2:-3:-1:-1:-1:-1:-1:-1:-0.363281:-0.860352:0.402832:0.4375:-1:0.5625
1562063478424908:-3:-3:-1:-2:-1:0:-1:0:-0.358887:-0.862305:0.402832:-0.6875:-1.125:0.4375
1562063478468908:0:-1:-3:-19:-1:2:0:0:-0.356445:-0.853516:0.406738:0.625:-0.9375:0.25
1562063478527908:0:-2:-1:-10:-2:1:-1:-1:-0.354492:-0.850098:0.409668:0.5:-1.75:0.0625
1562063478580908:0:-1:1:4:6:1:1:-1:-0.353516:-0.853516:0.413574:1.75:-0.625:0.3125
1562063478616908:-2:-3:-5:-6:0:0:1:0:-0.358398:-0.847656:0.40918:-0.3125:0:0.1875
1562063478676908:-1:0:-5:2:-2:-1:-1:-2:-0.355957:-0.858887:0.409668:1.25:0.75:0.625
1562063478725908:0:0:0:-3:0:1:0:-1:-0.357422:-0.857422:0.411133:-1.125:0.1875:-0.0625
1562063478767908:-1:0:1:10:0:-1:0:-2:-0.36377:-0.852539:0.413574:0.8125:-0.375:0.3125
1562063478827908:-1:-1:1:0:-3:-4:0:1:-0.355469:-0.858887:0.408691:0.0625:-0.625:-0.125
1562063478879908:-1:-1:-2:-1:-2:-1:2:-3:-0.356445:-0.852539:0.408691:1.0625:-0.5:-0.25
1562063478924908:0:-2:-3:3:2:-2:1:2:-0.359375:-0.863281:0.408203:-0.6875:-0.6875:-0.125
1562063478969908:-1:-2:-3:-2:-2:-1:0:-1:-0.358398:-0.846191:0.411133:1.3125:-0.5:0.1875
1562063479029908:0:-3:-1:-1:-3:-1:-2:0:-0.358887:-0.856445:0.411133:0.75:-0.375:0
1562063479081908:0:-1:-2:0:0:0:-1:0:-0.364746:-0.854004:0.410645:0.6875:-0.5:0
1562063479128908:-1:0:2:4:5:3:-2:-1:-0.352539:-0.858398:0.411133:0.3125:-0.5:0
1562063479179908:-1:-1:-1:-7:-1:0:0:-2:-0.353516:-0.850586:0.416504:-0.8125:-0.25:0
1562063479227908:0:-2:-2:7:2:-2:-1:-4:-0.36084:-0.848145:0.411133:1.4375:-0.3125:0.625
1562063479285908:-1:0:1:-1:-1:1:0:1:-0.358398:-0.858398:0.410156:-1:-0.3125:0.0625
1562063479329908:0:-1:4:6:2:-2:0:0:-0.357422:-0.849609:0.409668:0.9375:-0.1875:-0.0625
1562063479381908:0:0:2:14:-1:-2:-3:0:-0.350098:-0.861328:0.411133:-1:-0.375:-0.125
1562063479427908:-1:0:-4:-8:0:2:1:-1:-0.358398:-0.852539:0.414551:1.125:-0.25:0
1562063479487908:-1:1:-1:-27:-2:1:1:0:-0.357422:-0.857422:0.414062:-0.5:-0.4375:0.25
1562063479527908:0:-1:-4:-6:1:0:0:-1:-0.358887:-0.855469:0.412109:0.4375:-0.125:0.125
1562063479588908:2:0:-3:5:2:0:-1:0:-0.355957:-0.852539:0.416016:0.125:0.125:-0.3125
1562063479630908:-1:-2:-2:0:2:-3:-2:-2:-0.356934:-0.845703:0.416992:-0.0625:-0.6875:-0.3125
1562063479681908:0:0:1:-8:-3:-1:-2:0:-0.354004:-0.851074:0.417969:0.4375:-0.625:0.1875
1562063479727908:-1:-1:-3:2:-7:-1:-2:-1:-0.356934:-0.863281:0.410645:0.5:-0.125:-0.1875
1562063479787908:0:-2:-1:6:-4:-3:0:-2:-0.353516:-0.855469:0.411621:-0.3125:-0.625:-0.125
1562063479838908:0:-1:-1:-3:-3:-1:0:0:-0.362793:-0.850586:0.413574:0.125:-0.625:-0.4375
1562063479884908:0:1:-1:-1:2:-1:-1:-1:-0.35498:-0.852051:0.419434:0.375:-1:-0.25
1562063479930908:-1:1:2:-1:0:-4:-2:0:-0.356445:-0.850586:0.418457:0.25:-0.625:-0.25
1562063479990908:-1:-1:-1:-5:-4:2:0:-1:-0.355469:-0.85498:0.422363:0.375:-0.9375:-0.1875
1562063480030908:-1:0:-5:-7:-3:-2:-2:0:-0.355469:-0.853027:0.415039:0.8125:-0.4375:-0.4375
1562063480089908:1:-1:-1:6:-3:2:-1:1:-0.351074:-0.859375:0.42041:-0.25:-0.625:-0.0625
1562063480132908:0:0:-3:-1:-4:-3:1:0:-0.352051:-0.852539:0.415527:0.5:-0.625:0.375
1562063480183908:-1:2:5:12:1:-1:-1:0:-0.350586:-0.853516:0.417969:-0.25:-0.6875:0.375
1562063480229908:-2:-2:-2:2:-5:-3:0:-2:-0.349121:-0.853516:0.419434:0.0625:-0.625:-0.3125
1562063480281908:-3:-3:-2:-19:-1:-1:-1:1:-0.347656:-0.859863:0.420898:0:-0.625:-0.125
1562063480341908:0:-3:-3:-6:-3:-2:-1:0:-0.354492:-0.854492:0.424316:0.5:-0.4375:-0.125
1562063480390908:-1:-3:-2:-21:-15:-4:-3:-1:-0.349609:-0.855957:0.422852:0.4375:0:0
1562063480432908:-1:0:1:7:1:-1:-2:-1:-0.353027:-0.852051:0.422363:-0.1875:-0.5:0
1562063480492908:0:-1:0:1:6:2:2:0:-0.348633:-0.85498:0.430176:-0.1875:-0.5:0.375
1562063480544908:-2:1:0:-3:-4:-3:-4:-2:-0.348633:-0.855469:0.42041:0.125:-0.125:-0.1875
1562063480592908:0:-2:-2:-6:-1:2:1:-1:-0.351562:-0.853516:0.425293:-1.0625:-0.75:-0.0625
1562063480641908:0:-1:3:5:1:-1:-4:-2:-0.347656:-0.846191:0.418457:0.9375:-0.4375:0.25
1562063480697908:0:1:3:1:5:1:0:0:-0.34668:-0.855469:0.41748:-0.125:-0.8125:0
1562063480746908:-2:-2:-3:-1:4:1:-1:0:-0.34668:-0.856934:0.42041:-0.4375:-1.125:-0.1875
1562063480794908:-2:-4:-4:5:-1:-2:-1:-2:-0.35498:-0.850098:0.416504:-0.6875:-1.0625:-0.625
1562063480844908:0:-1:3:10:-2:-2:1:0:-0.353516:-0.855469:0.426758:-0.75:-1.9375:-0.75
1562063480895908:-1:-2:0:23:7:-2:-1:-2:-0.349609:-0.849121:0.427246:-0.6875:-1.125:-0.8125
1562063480950908:0:-3:-4:-16:-4:0:1:1:-0.341797:-0.859375:0.422852:-1.5:-0.5625:-0.25
1562063480997908:-2:-1:0:-6:-1:1:-1:0:-0.338867:-0.855957:0.421875:-1:-0.125:-0.5
1562063481047908:-1:0:-1:-6:-1:0:0:0:-0.342285:-0.85791:0.422852:-0.75:-0.1875:-0.1875
1562063481095908:0:1:1:3:1:0:1:0:-0.346191:-0.855957:0.421875:-0.8125:-0.3125:-0.0625
1562063481144908:0:1:-1:4:1:-3:-1:-1:-0.342773:-0.859375:0.42041:0.1875:0.125:0.4375
1562063481195908:0:-3:-2:-9:-1:-1:0:-2:-0.34668:-0.853516:0.423828:-0.4375:0:0.25
1562063481250908:-1:-1:-2:-9:1:0:0:1:-0.343262:-0.857422:0.419434:-0.375:0.25:0.625
1562063481297908:1:1:0:-2:-1:-2:-1:1:-0.345703:-0.853027:0.416016:0.1875:0.5:0.5625
1562063481346908:0:-1:1:-3:0:-1:-1:-2:-0.344238:-0.856934:0.42627:-0.4375:0:0.1875
1562063481395908:-1:0:-3:-13:-6:-2:-2:-2:-0.344727:-0.852051:0.416992:0.375:0.125:0
1562063481454908:-2:-2:-3:-7:-1:-2:-2:-1:-0.349609:-0.859375:0.416016:-0.4375:-0.5:0.125
1562063481504908:-2:-2:-2:0:-1:-1:1:-1:-0.343262:-0.859863:0.42041:0:0:-0.3125
1562063481549908:0:0:0:4:-1:0:2:-1:-0.344238:-0.863281:0.428223:-0.875:-0.1875:0.1875
1562063481597908:1:-2:-3:0:0:-3:-2:-1:-0.344727:-0.852539:0.421387:0.9375:-0.0625:0.625
1562063481655908:1:-2:-1:-1:-3:-1:0:-2:-0.344727:-0.860352:0.411621:0:0:-0.125
1562063481706908:-1:-1:-1:-6:-2:-4:-2:-3:-0.341309:-0.853516:0.423828:0.3125:0:-0.125
1562063481755908:-2:0:2:6:0:-3:-1:0:-0.349121:-0.855957:0.418457:0.8125:-0.0625:-0.0625
1562063481803908:0:-2:1:8:1:0:-1:-1:-0.346191:-0.852051:0.425781:-0.0625:-0.75:0
1562063481857908:1:-1:1:8:6:2:-2:2:-0.34668:-0.855469:0.418945:0.6875:-0.125:-0.125
1562063481896908:0:1:2:-5:-2:-3:0:-1:-0.345703:-0.858887:0.417969:0.125:-0.1875:0.25
1562063481958908:-2:0:-1:2:-3:-2:1:0:-0.341309:-0.860352:0.420898:-0.3125:-0.125:0.3125
1562063482006908:1:1:3:-1:-3:-2:0:0:-0.342285:-0.85791:0.421387:0.5625:0.1875:0.5
1562063482057908:-1:-2:-4:-5:3:0:-1:-1:-0.345703:-0.85791:0.429199:-0.1875:0.5625:0.0625
1562063482097908:-1:-1:-2:-7:1:1:1:2:-0.349609:-0.85791:0.416016:1.0625:0:0.4375
1562063482159908:0:-1:-1:-5:1:-1:-2:-2:-0.344238:-0.85498:0.422852:0.6875:0.0625:0.4375
1562063482208908:-2:1:0:-11:1:0:0:-1:-0.339355:-0.858887:0.416016:0.1875:-0.625:0.4375
1562063482257908:1:2:0:1:1:-1:-1:-1:-0.348633:-0.853027:0.42041:0.6875:-0.375:0.125
1562063482306908:0:-1:0:-3:0:-1:-3:0:-0.344727:-0.853027:0.416992:0.375:-0.3125:0.0625
1562063482357908:1:0:0:0:-1:1:1:1:-0.348145:-0.856445:0.424805:0.875:0.375:0.0625
1562063482412908:-2:-1:-1:7:4:0:0:-3:-0.345215:-0.855957:0.424316:0.5625:-0.25:0.25
1562063482460908:-1:-2:-1:-14:-5:-3:0:2:-0.345703:-0.849609:0.419434:-0.25:-0.375:-0.0625
1562063482508908:-1:1:-2:-5:4:1:-1:0:-0.349609:-0.850098:0.432129:0.1875:-0.25:0.0625
1562063482557908:1:-2:-1:-6:-1:-3:-2:-1:-0.346191:-0.848633:0.427734:0.125:-0.75:0.3125
1562063482606908:-1:1:-1:-9:-5:0:-3:-1:-0.345703:-0.856934:0.418945:0.625:-0.125:-0.0625
1562063482666908:0:-2:-3:-6:1:0:0:1:-0.342773:-0.852051:0.424805:0.1875:-0.3125:0.3125
1562063482713908:0:0:0:0:-3:0:1:1:-0.349121:-0.850098:0.421875:0.3125:0.125:0.1875
1562063482760908:-2:-1:-1:11:0:0:0:-1:-0.34668:-0.850586:0.427246:0.25:-0.625:0.5
1562063482820908:-1:-1:-4:0:3:0:0:2:-0.34375:-0.852539:0.431641:0.9375:0.125:0.4375
1562063482869908:-1:-2:-2:12:-4:-1:1:0:-0.345215:-0.854004:0.42627:-0.5:0.25:0.25
1562063482920908:0:0:2:0:3:1:1:1:-0.346191:-0.849121:0.42334:-0.25:-0.0625:0.0625
1562063482959908:-1:-1:-1:-8:1:3:1:1:-0.345703:-0.849609:0.424316:-0.3125:-0.1875:0.3125
1562063483019908:-1:-1:-2:8:2:-3:0:1:-0.345215:-0.854492:0.430176:0.4375:-0.4375:0.4375
1562063483072908:1:-1:2:1:-4:-2:-1:1:-0.346191:-0.852051:0.426758:-0.4375:-0.375:-0.125
1562063483119908:-1:0:1:15:3:-3:-1:-2:-0.344238:-0.849609:0.424805:0.25:-0.1875:-0.25
1562063483169908:1:-3:-1:-6:-8:-2:-4:-1:-0.348633:-0.856934:0.42041:-0.375:-0.5:-0.0625
1562063483220908:-1:-1:0:-2:-9:-2:-2:-1:-0.345703:-0.853516:0.423828:0.375:-0.0625:0.25
1562063483258908:0:-3:-4:-7:2:2:1:-1:-0.345215:-0.850586:0.425293:0.0625:-0.4375:0.125
1562063483319908:-1:0:-4:-3:1:1:2:0:-0.347656:-0.850098:0.429199:-0.0625:-0.4375:-0.0625
1562063483371908:23:11:2:2:-1:1:1:30:-0.349609:-0.847656:0.435547:-0.0625:1.0625:0.75
1562063483420908:-4:-1:-2:3:4:1:3:20:-0.348633:-0.844238:0.440918:-7.8125:4.0625:2.25
1562063483468908:61:-5:-1:2:-1:-7:-112:2:-0.33252:-0.831543:0.4375:-12.3125:17.5625:1.0625
1562063483520908:46:-5:-3:-5:-6:-5:90:118:-0.394531:-0.893555:0.346191:-8.375:18.5:6.3125
1562063483558908:38:-2:-21:-17:-10:7:67:31:-0.371582:-0.928711:0.321777:-3.625:0.9375:13.3125
1562063483619908:-64:13:18:9:0:-16:-49:-1:-0.458496:-0.753906:0.410645:30.5:-13.6875:27.375
1562063483672908:16:-41:-12:-13:-4:-6:4:97:-0.385742:-0.78418:0.414551:-15.3125:-10.5:1.9375
1562063483722908:119:25:14:-13:-2:-1:-59:-49:-0.395508:-0.810059:0.427246:-26.625:-16.5625:-10.5625
1562063483761908:0:-3:-17:-20:0:7:47:-42:-0.362305:-0.929199:0.406738:-11.5:-12.1875:-3
1562063483821908:-37:-27:7:-27:-3:16:102:87:-0.339844:-0.856445:0.393555:-6.875:-11.125:-3.1875
1562063483874908:37:-15:-32:-39:0:7:54:24:-0.368164:-0.851562:0.416992:16.5625:-2.625:4
1562063483919908:-17:-27:-6:-40:7:-2:-37:23:-0.36377:-0.767578:0.405762:-8.25:-3:-10.75
1562063483971908:-76:13:12:6:-1:-2:3:4:-0.334473:-0.974609:0.440918:-9.6875:0.6875:-3
1562063484023908:-5:1:2:-14:2:0:2:-1:-0.328613:-0.786621:0.411621:-1.25:6.5625:-16.6875
1562063484077908:-2:3:8:47:38:7:7:4:-0.32959:-0.866211:0.407227:-26:10.6875:-20.3125
1562063484121908:-3:-2:-2:-51:15:-3:-3:-1:-0.365234:-0.94873:0.320312:14.875:2.375:10.25
1562063484174908:0:0:1:34:36:7:2:1:-0.410156:-0.836426:0.349609:29.6875:-14.0625:7.3125
1562063484222908:-5:-2:-8:14:-12:-5:-2:-19:-0.354492:-0.776367:0.443848:19.3125:-18.5:-6.8125
1562063484272908:0:-1:-5:1:8:4:4:14:-0.279785:-0.858887:0.46875:-2.8125:2.0625:-19.5625
1562063484322908:0:-4:-5:24:7:3:5:3:-0.291992:-0.931641:0.416016:-6:3.5625:-8.625
1562063484377908:-1:-2:-2:-57:-13:-4:-5:-2:-0.347168:-0.884766:0.407227:1.125:-0.5625:3.4375
1562063484421908:0:-3:-4:3:0:-2:0:1:-0.339844:-0.84668:0.421875:1.25:1.3125:2.625
1562063484481908:-1:0:0:9:8:1:0:-1:-0.337402:-0.855469:0.42627:-5.125:-1.8125:0.8125
1562063484522908:0:2:4:-15:-11:-1:2:0:-0.321777:-0.863281:0.418457:0.375:0.5:-1.5625
1562063484582908:-3:-3:-1:-21:1:-2:1:0:-0.319336:-0.872559:0.413086:-2.25:-3.4375:-0.3125
1562063484631908:-2:0:-1:-8:2:0:-4:-6:-0.322266:-0.876465:0.418945:-0.75:-1.875:0.8125
1562063484683908:0:0:-2:8:2:1:4:3:-0.321777:-0.858887:0.417969:-2.4375:-1.25:1.4375
1562063484721908:2:1:2:-4:7:1:1:0:-0.322754:-0.862793:0.427734:-0.125:0.375:-0.1875
1562063484781908:1:0:-1:6:0:0:13:8:-0.324707:-0.865234:0.409668:0.375:0.5:0.25
1562063484834908:-2:-1:-2:-34:-13:-1:-3:-5:-0.320312:-0.870605:0.413086:-0.0625:-0.625:0.1875
1562063484880908:1:-2:2:15:1:1:7:0:-0.327148:-0.855957:0.414062:1:0.5:0.625
1562063484923908:0:1:-3:-14:-10:-1:-3:1:-0.325195:-0.876953:0.417969:-1.25:1.375:0
1562063484983908:0:0:-2:-1:3:2:-5:-2:-0.330566:-0.854492:0.410645:0.5625:-0.875:0.3125
1562063485021908:0:-1:-2:-16:-6:-2:-5:4:-0.321289:-0.862305:0.424805:-0.75:-0.4375:-0.4375
1562063485081908:-1:-2:0:5:1:0:1:1:-0.321289:-0.858398:0.418457:1.8125:0.1875:-0.25
1562063485134908:-2:0:-1:4:-2:-1:-3:-2:-0.322266:-0.880371:0.421875:-2.3125:0.0625:-0.125
1562063485185908:-1:-2:-1:-7:1:-1:-1:0:-0.326172:-0.868164:0.414551:1.8125:0.75:0.125
1562063485223908:1:1:-3:-7:-3:-1:0:3:-0.326172:-0.862793:0.409668:-1.0625:0.0625:0
1562063485278908:-3:-3:-5:-2:-8:-6:-12:-2:-0.321777:-0.86377:0.415039:0.5625:0.75:0.625
1562063485337908:0:1:3:7:-1:-1:-1:-1:-0.322266:-0.861816:0.414062:1.125:1.125:0.8125
1562063485385908:-1:-1:-2:-2:-4:-2:-1:2:-0.325684:-0.867676:0.415039:-0.75:0.9375:0.3125
1562063485434908:1:0:-3:-29:2:2:3:-1:-0.33252:-0.862793:0.418457:0.3125:1.125:0.3125
1562063485486908:-1:-1:-3:-11:-5:1:3:1:-0.333984:-0.85498:0.422363:1.125:0.5625:0.75
1562063485539908:-1:-1:-2:5:1:-1:-2:0:-0.327637:-0.866211:0.418945:0:-0.625:0.1875
1562063485584908:-1:-1:-2:4:1:0:0:-1:-0.321777:-0.864746:0.41748:1.4375:-0.5:-0.375
1562063485644908:-1:-1:-1:18:-4:-3:-1:2:-0.329102:-0.862793:0.418457:1.125:-0.625:0.125
1562063485687908:-1:2:6:-13:-1:2:-1:1:-0.32666:-0.860352:0.418457:2.1875:-0.5625:0.5625
1562063485742908:0:-1:-1:-7:1:2:2:1:-0.326172:-0.856445:0.425293:-0.5:-0.8125:-0.1875
1562063485786908:0:-2:1:23:-4:0:1:0:-0.329102:-0.86084:0.424316:0.875:-0.6875:0.3125
1562063485839908:0:-2:-1:5:1:-2:-1:0:-0.323242:-0.862305:0.418457:1.0625:0.125:0.5625
1562063485884908:1:1:1:-6:-3:0:-1:2:-0.324707:-0.858887:0.426758:0.875:0.875:1
1562063485943908:-2:1:0:1:-2:-3:-2:-2:-0.329102:-0.859863:0.421875:0.25:0.5625:0.75
1562063485988908:0:-1:1:-6:4:1:0:2:-0.332031:-0.858887:0.423828:0.625:0.4375:0.0625
1562063486047908:1:0:-2:-7:0:-2:-2:1:-0.329102:-0.859863:0.422363:-0.0625:-0.0625:-0.0625
1562063486087908:-2:2:2:4:-3:-1:-1:-1:-0.330078:-0.863281:0.421875:0.375:-0.3125:0.0625
1562063486146908:0:-1:-1:-1:4:1:-2:-1:-0.325684:-0.85791:0.420898:-0.0625:-0.625:-0.375
1562063486187908:0:-2:0:6:3:3:1:3:-0.325195:-0.86084:0.42627:0.5:-0.4375:-0.4375
1562063486247908:-1:0:0:-4:-4:-1:1:0:-0.324707:-0.861328:0.425781:-0.75:-0.875:-0.125
1562063486296908:1:-3:-4:-8:0:0:0:-1:-0.328125:-0.862305:0.419922:1.4375:-0.5:0
1562063486349908:-1:-2:-1:-10:-2:1:0:-2:-0.331055:-0.861816:0.43457:-0.5625:-0.8125:-0.5625
1562063486386908:1:-1:-1:-6:0:1:1:-1:-0.326172:-0.867676:0.433105:-0.6875:-1:-0.375
1562063486446908:-1:1:1:-4:-5:-1:0:1:-0.32666:-0.848633:0.421875:-0.1875:-0.875:-0.125
1562063486499908:0:-3:-2:-1:2:-1:0:-3:-0.327148:-0.86377:0.425781:0.8125:-0.8125:-0.25
1562063486547908:-1:0:-4:-9:4:1:0:-2:-0.324219:-0.858887:0.431152:0:-2.25:-0.0625
1562063486588908:1:-2:-7:-5:-1:-1:-1:-2:-0.321289:-0.860352:0.435059:-0.5:-1.375:-0.1875
1562063486649908:0:-2:0:13:3:-2:0:-1:-0.317871:-0.86084:0.433105:0.125:-0.625:0.8125
1562063486701908:-1:-2:-1:11:5:2:-2:-1:-0.319824:-0.856445:0.428711:0.3125:0.1875:0.25
1562063486746908:1:2:2:0:2:3:0:1:-0.321777:-0.862793:0.433105:0.25:0.25:0.25
1562063486800908:-1:1:-2:-14:1:2:-1:0:-0.32373:-0.858887:0.42334:-1.375:0:0.3125
1562063486850908:-2:-2:-3:2:0:-2:-2:-2:-0.322266:-0.859863:0.431641:0.625:0.0625:0.375
1562063486888908:0:-1:2:-4:-3:-1:0:-3:-0.322754:-0.859863:0.432617:-0.375:-0.5625:0.1875
1562063486949908:-1:-1:-1:-5:-1:0:0:2:-0.326172:-0.857422:0.432617:0.3125:0.0625:0.25
1562063487001908:-1:-1:1:3:4:1:1:0:-0.32373:-0.857422:0.437012:0.8125:0.1875:0.25
1562063487046908:2:0:1:-7:6:-1:-1:1:-0.326172:-0.85791:0.430664:-0.3125:0.125:-0.125
1562063487098908:-2:0:-3:-4:3:0:-1:-1:-0.330078:-0.862793:0.425781:1.0625:-0.0625:0.1875
1562063487150908:-1:-1:-2:-7:1:2:0:-1:-0.324219:-0.86084:0.430664:0.6875:0.125:-0.1875
1562063487188908:-1:-2:-1:-4:0:-2:-3:-3:-0.322754:-0.852539:0.434082:-0.125:-0.4375:-0.375
1562063487248908:-2:0:-3:13:0:-2:0:0:-0.323242:-0.858887:0.430176:0.3125:0.0625:-0.3125
1562063487304908:-2:-1:-1:0:-11:-4:-4:-1:-0.327148:-0.859863:0.43457:0.125:-0.375:0
1562063487349908:0:-1:-3:-7:5:0:-3:-1:-0.324219:-0.85791:0.43457:-0.3125:0.125:0.125
1562063487406908:-2:-2:-1:0:0:-1:-1:-2:-0.324707:-0.853516:0.429199:-0.5625:-0.1875:0.3125
1562063487451908:-1:0:-1:4:2:0:1:-1:-0.320312:-0.861816:0.427246:0.1875:0.25:-0.125
1562063487503908:0:-1:1:2:1:1:0:0:-0.325195:-0.85791:0.433594:-1.1875:-0.9375:-0.25
1562063487549908:-2:-2:-4:4:1:0:1:0:-0.331543:-0.852539:0.435059:-0.25:-1.875:-0.6875
1562063487604908:2:1:1:9:1:0:-1:0:-0.314941:-0.853516:0.44043:-0.75:-2.0625:-0.8125
1562063487648908:-1:0:-1:-7:-7:-2:-1:0:-0.318359:-0.86377:0.437988:-0.75:-1.1875:-0.3125
1562063487706908:-1:-1:-2:-6:2:2:0:0:-0.317383:-0.854492:0.431641:-1.5:-0.375:-0.625
1562063487751908:2:0:1:-4:-1:-2:-1:1:-0.319336:-0.861816:0.432129:0.1875:-0.25:-0.3125
1562063487803908:-3:-6:-3:8:-8:-4:-4:-4:-0.31543:-0.865723:0.433594:-1.1875:-0.625:-0.0625
1562063487848908:-3:-2:-2:4:-3:-1:-3:1:-0.320312:-0.86377:0.435547:-0.4375:-0.125:0.5625
1562063487909908:1:0:1:3:1:-2:2:-2:-0.31543:-0.858398:0.431641:-0.1875:0.125:0.25
1562063487949908:0:0:1:3:1:-1:-2:-2:-0.318359:-0.859863:0.429688:-0.1875:0.5625:0.4375
1562063488009908:-1:-2:-1:-8:-1:0:0:2:-0.324219:-0.86084:0.428711:-0.4375:0.625:0.5
1562063488051908:-2:0:-1:11:-1:-2:-2:-1:-0.319824:-0.864746:0.432129:0.1875:0.25:0.625
1562063488111908:1:0:-3:-11:1:2:1:-1:-0.321777:-0.860352:0.432129:-0.5625:-0.1875:0.4375
1562063488148908:-1:0:-1:-9:2:-1:-3:-1:-0.322754:-0.854492:0.428711:0.125:-0.3125:0.3125
1562063488209908:-16:-4:3:2:1:0:-36:-27:-0.342773:-0.853516:0.445312:-2.75:0.375:1.25
1562063488248908:-80:-12:2:-2:3:-2:-51:6:-0.296875:-0.831543:0.418945:-18.0625:40.875:-5.0625
1562063488291908:5:-20:-25:-8:0:10:88:-68:-0.370117:-0.901855:0.26709:-35:21.1875:2.4375
1562063488351908:44:29:-5:-6:-6:-15:-83:-50:-0.18457:-1.104:0.309082:-5.625:-17.625:21.8125
1562063488411908:64:8:-12:3:-9:-10:-71:60:-0.452148:-0.773438:0.460938:40.25:0.25:44.0625
1562063488452908:-50:-2:-16:6:8:19:51:-55:-0.379395:-0.750977:0.429688:4.625:9.0625:7.875
1562063488512908:-65:-85:3:-13:-12:-6:28:-52:-0.37793:-0.919922:0.386719:-19.5:3.6875:-3.4375
1562063488553908:-44:9:-7:-19:-5:7:56:127:-0.34375:-0.823242:0.333008:8.375:5.4375:0
1562063488613908:-17:9:-4:5:-1:6:47:-6:-0.406738:-0.864258:0.374512:1.5:-0.3125:-4.875
1562063488651908:-12:-3:-8:-4:-8:24:2:-19:-0.358398:-0.84082:0.391602:-1.0625:2.9375:-3.9375
1562063488711908:-3:-5:-25:-58:28:-11:-9:-5:-0.384277:-0.839355:0.378906:-20.8125:0.0625:-23.375
1562063488752908:-2:3:1:3:-10:2:1:-3:-0.365234:-0.94043:0.371582:-9.75:4:-3.8125
1562063488815908:-5:-1:-7:-30:-5:-8:-2:-4:-0.424316:-0.875488:0.274414:18.9375:-4.8125:9.5
1562063488853908:-4:-2:-2:11:-2:-3:-7:4:-0.359375:-0.841309:0.408203:21.3125:-19.1875:-8.9375
1562063488914908:-1:1:-6:-24:-4:2:12:2:-0.314453:-0.783203:0.419434:16.5625:-6.8125:-16.625
1562063488951908:-1:-2:-4:-31:-22:0:-2:3:-0.306641:-0.973633:0.393555:-9.8125:-5.75:-8.75
1562063489011908:-3:-1:-4:-43:-11:-2:-4:-4:-0.344238:-0.868652:0.375977:8.9375:-2.625:0.3125
1562063489066908:1:3:1:18:-7:-1:0:4:-0.340332:-0.876953:0.410645:-4.6875:-2.75:0.3125
1562063489111908:0:-2:0:10:6:1:5:3:-0.331543:-0.870117:0.39209:3:-0.3125:2.75
1562063489153908:1:0:1:27:2:4:0:0:-0.328613:-0.888672:0.383789:-0.125:-0.8125:0.1875
1562063489214908:-2:-1:-1:-21:-9:-3:-2:2:-0.317871:-0.871582:0.394531:3.9375:-1.75:-1.3125
1562063489266908:-2:-1:1:-2:-7:-3:0:0:-0.336426:-0.879395:0.401367:-0.5625:-2.4375:-1
1562063489310908:0:0:1:9:2:0:1:0:-0.327637:-0.864258:0.39502:2.125:-0.625:0.4375
1562063489371908:0:2:3:14:0:-5:-2:-2:-0.326172:-0.873535:0.399902:1:-0.1875:0.25
1562063489416908:-1:1:2:6:-1:-1:-1:-2:-0.325684:-0.873047:0.404297:1.0625:-1.25:0.375
1562063489468908:-1:-3:2:6:-3:-3:-1:-3:-0.330566:-0.872559:0.407715:1.875:-0.25:0.1875
1562063489513908:-1:-1:1:1:0:0:-3:-1:-0.328613:-0.868164:0.40625:1.1875:-0.9375:0.5
1562063489573908:0:0:1:0:1:-2:-8:4:-0.327637:-0.867676:0.411133:1.8125:0:1
1562063489614908:-1:-2:-4:3:5:-1:-5:-4:-0.32373:-0.862793:0.404297:0.5:-0.625:0.125
1562063489674908:0:-1:3:-9:-7:4:-9:0:-0.32373:-0.869629:0.40332:-1.3125:-1:1.625
1562063489715908:-2:-1:3:24:3:-7:-6:-8:-0.335449:-0.872559:0.412598:-0.5625:-2.1875:1.375
1562063489768908:-1:0:2:3:-3:0:11:5:-0.328125:-0.865234:0.414062:0.375:-1.6875:-0.25
1562063489813908:-2:0:-2:8:1:-2:-9:-12:-0.32373:-0.876953:0.415527:-0.0625:-0.75:-0.375
1562063489874908:-2:0:7:-6:-5:-3:-3:-1:-0.322754:-0.871094:0.407715:0.5625:0:0.0625
1562063489926908:0:0:-5:-1:6:3:-1:-3:-0.332031:-0.871582:0.408203:-2.1875:-2.375:2.625
1562063489974908:-1:0:-2:7:9:2:1:0:-0.330566:-0.867676:0.410645:-0.375:-2.25:3.625
1562063490016908:2:0:1:-8:0:1:-2:-2:-0.327148:-0.863281:0.408691:-0.8125:-2.5:3.5625
1562063490075908:-1:1:0:8:1:-2:1:4:-0.33252:-0.868652:0.409668:-0.4375:-2.4375:3.625
1562063490128908:2:0:2:-7:0:-1:-1:0:-0.334473:-0.859863:0.413574:0.3125:-1.4375:2.5625
1562063490174908:1:1:3:4:0:1:1:2:-0.333984:-0.857422:0.411621:-2.5625:-2.0625:1.4375
1562063490226908:0:-3:-4:-17:-5:-4:-2:0:-0.334473:-0.858887:0.416992:-1.4375:-2.125:1
1562063490271908:0:1:-2:-2:3:3:1:2:-0.339844:-0.860352:0.416992:-6.1875:-2.625:0.25
1562063490315908:-1:-1:-1:0:-2:-2:1:3:-0.337402:-0.871094:0.40332:-4.5625:-1.8125:0
1562063490376908:-1:1:-2:-1:0:-1:2:4:-0.336426:-0.867676:0.38916:-5.6875:-2.375:-0.5625
1562063490428908:0:-1:-2:1:2:0:-5:-3:-0.333984:-0.873535:0.402832:-5.375:-2:-1.4375
1562063490476908:-1:1:4:4:-1:-2:2:0:-0.330566:-0.876465:0.389648:-6.8125:-1.875:-1.625
1562063490518908:0:0:-2:-6:-3:-1:3:1:-0.316895:-0.871094:0.385254:-5.875:-1.5:-2.5
1562063490579908:-2:0:-2:13:-5:-4:-1:-1:-0.308105:-0.885742:0.386719:-4.375:-0.875:-3.5
1562063490631908:-1:-3:-3:5:1:1:1:-3:-0.323242:-0.891113:0.39209:-3.1875:-0.875:-3.5
1562063490675908:0:0:1:4:6:-1:-2:-4:-0.331055:-0.88623:0.394043:-0.4375:-0.875:-1.25
1562063490728908:0:-2:0:-3:5:1:2:3:-0.317871:-0.891602:0.366211:-3.0625:0.5:-0.1875
1562063490776908:-3:-1:-3:-8:1:3:2:-4:-0.29248:-0.897461:0.361816:-0.5:2.1875:1
1562063490834908:-1:-2:0:-3:-6:-2:-1:-2:-0.288086:-0.924805:0.352539:6.625:3.75:1.4375
1562063490878908:1:1:0:-2:-3:1:0:1:-0.321777:-0.858887:0.371582:15.6875:4.0625:2.1875
1562063490930908:1:2:-1:-6:-3:-2:2:0:-0.323242:-0.89502:0.37793:-2.5:2.3125:-1.3125
1562063490975908:0:0:-3:2:-1:0:2:0:-0.333008:-0.862305:0.390137:7.9375:0.9375:1.9375
1562063491035908:-2:-3:-5:5:0:-1:-4:-1:-0.32959:-0.874023:0.379395:1.5:0.375:-0.1875
1562063491076908:-1:0:1:2:0:0:-3:-1:-0.327148:-0.880371:0.396973:-0.0625:-1.4375:0.4375
1562063491133908:0:-1:-3:-25:-1:-1:-1:0:-0.322266:-0.881348:0.397949:2.5625:-1.6875:1.0625
1562063491178908:0:-2:-1:6:1:0:1:-1:-0.325195:-0.875:0.399414:1.8125:-2.5:1.5
1562063491238908:0:0:0:7:1:0:-2:0:-0.325195:-0.872559:0.418457:-0.125:-2.8125:1.8125
1562063491275908:1:0:1:2:2:1:3:2:-0.32373:-0.875977:0.399414:5.9375:-1.125:0.4375
1562063491339908:-1:-2:-4:1:-2:2:0:1:-0.33252:-0.86377:0.39502:6.5625:-4.9375:0.25
1562063491382908:-1:1:1:-1:0:-2:-2:-1:-0.32373:-0.877441:0.407715:13.5:-1.25:-0.125
1562063491442908:0:-1:-4:4:-2:-4:-5:-3:-0.32666:-0.851562:0.44043:4.3125:-1.25:2.125
1562063491478908:-1:2:-1:-1:0:0:1:0:-0.325684:-0.841797:0.437988:4.6875:1.0625:4.25
1562063491538908:-2:-2:0:12:1:-1:-1:-2:-0.327637:-0.853027:0.422852:-3.8125:0.5625:2.9375
1562063491590908:-3:-1:-2:3:-2:-3:-3:0:-0.317871:-0.872559:0.405762:3.0625:0.625:-0.0625
1562063491636908:0:1:-1:-7:-5:-1:0:1:-0.313477:-0.877441:0.40332:3.9375:-0.1875:-0.3125
1562063491682908:0:0:1:0:0:0:-2:-1:-0.319336:-0.864746:0.433594:3.25:-0.8125:-0.0625
1562063491742908:-1:-1:1:-5:2:0:0:0:-0.338867:-0.842285:0.441895:3.625:-1.25:-0.0625
1562063491793908:1:1:-1:-8:-2:1:-1:1:-0.35791:-0.841309:0.443359:1.5625:-1.4375:-0.1875
1562063491839908:-2:-1:0:-5:-1:0:0:0:-0.349609:-0.847168:0.446289:-0.625:-0.3125:-0.875
1562063491891908:0:0:0:6:1:0:2:1:-0.321777:-0.849121:0.438965:0.375:0.75:-0.6875
1562063491939908:-3:-2:1:-10:-4:-1:-1:-1:-0.312988:-0.870117:0.428223:-1.3125:0.8125:0.125
1562063491982908:0:-3:-3:-15:-3:-1:-1:-1:-0.312988:-0.855957:0.426758:3.625:0.9375:-0.1875
1562063492041908:-1:-1:0:19:3:3:1:1:-0.319824:-0.866699:0.431641:1.5:0.9375:0.375
1562063492093908:-2:-2:0:8:4:-2:0:-2:-0.335449:-0.845215:0.432617:3.3125:1.75:-0.25
1562063492138908:1:0:-1:0:2:-4:-2:0:-0.330078:-0.864258:0.43457:-0.1875:-0.375:0.5
1562063492199908:-2:-1:0:-5:-1:-3:-2:-1:-0.334473:-0.84082:0.433105:1.875:-0.625:0.1875
1562063492243908:-2:0:-2:0:3:3:-2:-1:-0.332031:-0.870117:0.4375:0.0625:-1.3125:0.625
1562063492295908:0:-2:-6:-7:-1:0:0:-1:-0.333008:-0.841309:0.434082:2.5625:-0.8125:-0.0625
1562063492341908:0:-1:0:3:1:1:0:0:-0.326172:-0.85498:0.443359:0.25:-0.625:-0.375
1562063492392908:-1:1:0:-1:-3:-4:-2:-1:-0.317871:-0.852539:0.441406:0.125:-1.3125:-0.875
1562063492441908:-1:-4:-3:-6:-5:-3:-2:-2:-0.321777:-0.850098:0.444336:-1.375:-2.9375:-0.875
1562063492499908:-1:-1:1:-12:-1:0:0:-1:-0.319824:-0.85791:0.451172:0.8125:-2.5625:-1.375
1562063492543908:-1:-1:1:6:-2:-2:0:-2:-0.333496:-0.846191:0.450684:0.125:-1.8125:-0.1875
1562063492596908:-1:-1:-1:1:-1:-1:1:1:-0.328125:-0.849121:0.445801:-0.6875:-1:-1.3125
1562063492642908:-2:-2:-4:-15:-1:-3:0:-1:-0.319336:-0.85791:0.445801:-2.5:-1.3125:-1.875
1562063492701908:-1:-1:4:1:-6:-2:-1:-1:-0.313477:-0.856445:0.44043:-0.4375:-1.9375:-1.0625
1562063492741908:-1:-2:-3:9:-7:0:0:-2:-0.305176:-0.862793:0.44043:-1.1875:-0.6875:-0.875
1562063492801908:1:1:2:1:2:2:1:0:-0.305176:-0.86084:0.435059:-0.875:-0.125:-0.25
1562063492844908:-1:-3:-2:0:3:-1:0:0:-0.315918:-0.856934:0.4375:0:0.875:0.9375
1562063492895908:0:1:4:10:2:0:-1:2:-0.320312:-0.848145:0.431641:0.6875:0.5625:0.875
1562063492941908:-1:-1:1:-10:0:0:1:0:-0.317383:-0.858398:0.442383:0.6875:-0.3125:0.125
1562063493000908:-1:-2:0:3:-5:-3:-1:-2:-0.320801:-0.846191:0.441406:0.5:-1.25:0
1562063493053908:1:2:1:1:3:0:-1:0:-0.318848:-0.86084:0.442871:0.125:-0.75:-0.1875
1562063493098908:-4:-1:1:0:-5:-3:-2:-1:-0.306641:-0.859375:0.446777:-0.0625:-0.5625:0
1562063493144908:1:-1:-3:-1:1:0:0:2:-0.31543:-0.855469:0.446289:0:1.375:0.8125
1562063493203908:0:0:1:2:-10:-1:-1:0:-0.317383:-0.854004:0.440918:-0.5:2:0.9375
1562063493256908:-1:-2:-4:-3:-4:-2:-2:-1:-0.319336:-0.850586:0.435059:0.875:1.5:1.0625
1562063493308908:-1:1:1:-5:1:0:-1:0:-0.318359:-0.858887:0.436523:-0.25:0.125:0.875
1562063493346908:-2:-2:-3:-7:0:-1:-1:-18:-0.325195:-0.855469:0.431641:0.625:-0.0625:-0.25
1562063493407908:4:-4:-1:-1:0:1:-1:6:-0.319824:-0.852539:0.444824:-6:0.375:0.3125
1562063493458908:-2:1:5:9:5:0:0:-5:-0.314453:-0.864746:0.439941:-4.1875:0.625:1.0625
1562063493504908:-10:3:1:6:3:2:5:8:-0.324707:-0.847656:0.439941:0.9375:1.375:0.5
1562063493555908:70:5:0:-1:-1:-4:-29:2:-0.318359:-0.851074:0.443848:1.625:1.5625:0.25
1562063493604908:24:-13:5:3:3:6:70:25:-0.321289:-0.815918:0.484863:-11.625:17.625:3.0625
1562063493661908:2:-4:-1:-7:-6:-10:-62:48:-0.341309:-0.84375:0.395508:-35.5:28.8125:-3.6875
1562063493706908:48:62:11:9:2:1:-85:-32:-0.294434:-1.04004:0.275879:-40.25:-8.375:1.625
1562063493757908:49:-13:-24:5:3:6:36:-61:-0.289062:-0.983887:0.424316:16.4375:-2.75:36.125
1562063493804908:-65:-21:20:-9:9:-8:-38:9:-0.358398:-0.687988:0.375488:25.625:15.25:19.4375
1562063493856908:-95:19:-1:20:2:-4:19:48:-0.444336:-0.814941:0.401367:-26.0625:-5.1875:-4.8125
1562063493903908:2:8:-11:62:0:-2:15:42:-0.38623:-0.830566:0.343262:22.8125:5.6875:-0.875
1562063493960908:19:13:11:-15:6:-1:-20:-7:-0.34375:-0.830566:0.360352:-13.75:-5.3125:-17.4375
1562063494007908:-3:-5:-14:0:-3:1:-9:-3:-0.366699:-0.951172:0.430664:8.5:4.0625:-23.75
1562063494058908:7:7:8:54:-4:-4:-3:-1:-0.306152:-0.839355:0.384277:-18.625:-0.625:-6.75
1562063494113908:1:3:5:-10:10:2:2:4:-0.46582:-0.908691:0.238281:16.0625:-23.125:11.25
1562063494163908:-1:-2:-9:-34:-8:-1:-13:-7:-0.459961:-0.785645:0.407227:35.375:-37.375:9.25
1562063494211908:-2:1:-1:-29:-1:1:3:3:-0.209473:-0.769043:0.459961:14.8125:9.5625:-25
1562063494260908:-1:-1:-2:-10:-7:-4:-4:4:-0.277832:-0.915039:0.322266:-29.3125:-0.125:-2.375
1562063494308908:0:-2:-11:-31:6:4:-4:-2:-0.346191:-0.900879:0.36084:22.3125:-1:0.8125
1562063494358908:-1:-1:-1:-6:-3:0:-4:-15:-0.347656:-0.803711:0.432129:8.25:-7.1875:1.125
1562063494413908:-2:-1:-2:-20:-5:0:1:1:-0.341309:-0.871582:0.44043:-0.3125:-6.25:-1
1562063494464908:0:-1:-3:-11:1:1:-5:0:-0.300781:-0.866699:0.408691:-1.125:-3.0625:-3.125
1562063494511908:-1:-2:-4:3:-3:-1:-4:2:-0.285645:-0.89209:0.420898:2.875:0.0625:-2.0625
1562063494560908:2:0:2:4:2:-2:-3:10:-0.300781:-0.856934:0.424805:2.125:2:-0.3125
1562063494609908:-2:0:2:-10:-5:-4:3:3:-0.325684:-0.878418:0.413574:0.3125:2:1
1562063494669908:0:0:-1:4:-4:-2:1:3:-0.32666:-0.838867:0.426758:2.125:-0.9375:1.625
1562063494718908:-2:1:-1:5:-3:0:-2:-1:-0.319336:-0.859375:0.432129:-2.9375:-2.8125:-0.3125
1562063494762908:0:2:-1:-4:2:0:1:3:-0.304688:-0.867188:0.424805:-2.5625:-2.375:-2.8125
1562063494822908:-1:-2:0:4:3:-1:-1:0:-0.305176:-0.864746:0.42041:-1.875:-2.5625:-2.9375
1562063494871908:0:-3:-3:-11:-11:-4:-1:2:-0.308105:-0.87207:0.42627:-0.4375:-1.6875:-1.125
1562063494920908:-2:0:-2:0:2:-1:-1:1:-0.301758:-0.87207:0.432129:-1:-1.0625:0.5
1562063494969908:-2:-1:2:6:-8:-4:-1:0:-0.296875:-0.869629:0.421387:3.5:0.8125:1.3125
1562063495018908:-1:0:4:0:1:1:-1:-1:-0.300781:-0.857422:0.431641:0.375:1.625:0.8125
1562063495073908:-1:-2:-2:1:1:-1:1:0:-0.314453:-0.863281:0.417969:0.125:1.3125:0.5625
1562063495122908:0:-4:-4:-9:-4:-2:-3:0:-0.315918:-0.867188:0.422363:1.5625:0.125:1
1562063495171908:0:0:2:19:6:2:2:0:-0.314941:-0.847656:0.425781:1.375:-0.6875:0.5
1562063495220908:0:-2:-3:-7:0:-2:-3:-2:-0.304688:-0.875488:0.426758:-2.5625:-1.75:0
1562063495271908:2:1:1:-6:-5:-2:-2:0:-0.310059:-0.864258:0.427246:0.0625:-1.5:0.1875
1562063495313908:-2:1:-1:-10:0:0:0:0:-0.306152:-0.865723:0.431152:-0.625:-1:0.1875
1562063495374908:-1:-1:1:-4:-10:-1:0:-1:-0.310547:-0.859375:0.430176:1.8125:0.125:-0.1875
1562063495423908:-1:0:-4:4:1:0:-1:-3:-0.310547:-0.86084:0.425293:-0.625:0.375:-0.375
1562063495471908:-1:-2:-2:7:2:0:-1:-1:-0.306641:-0.860352:0.432129:1.6875:0.5:0.6875
1562063495521908:-1:-1:-2:-2:3:-1:0:1:-0.308105:-0.862793:0.429688:1.6875:1.1875:1.4375
1562063495580908:0:-1:-5:3:-1:-2:0:-2:-0.315918:-0.855469:0.429199:0.5:0.375:1.1875
1562063495631908:0:-4:-5:-4:0:2:-2:-3:-0.316406:-0.86084:0.429199:1.1875:0.3125:0.6875
1562063495673908:-1:0:0:6:1:-2:-1:-2:-0.316406:-0.859375:0.428711:2:0.125:0.5625
1562063495723908:1:0:4:-5:-1:-1:-2:-2:-0.319336:-0.85791:0.430664:3.1875:-0.5:0.5625
1562063495782908:-1:-1:0:-2:-1:-2:0:0:-0.30957:-0.859375:0.435059:2.375:-0.3125:1.125
1562063495821908:-1:-2:-1:-4:-4:-3:-1:-1:-0.305176:-0.864258:0.43457:2.125:0.5:1.5625
1562063495880908:-1:-1:-1:6:2:1:0:-1:-0.306641:-0.861816:0.439453:1.9375:0.5625:1.875
1562063495932908:0:1:2:-4:-3:1:-1:0:-0.324707:-0.854492:0.443359:-0.25:0.6875:1.375
1562063495973908:0:-1:-3:0:3:0:-4:-1:-0.320801:-0.853516:0.437988:0.875:0.1875:1
1562063496033908:0:0:2:0:-3:-2:0:-1:-0.324219:-0.854004:0.44043:-0.6875:-0.5:0
1562063496083908:0:1:1:-3:2:-1:1:1:-0.317871:-0.856934:0.436523:0.3125:-0.25:-0.4375
1562063496133908:-1:-2:-7:5:3:1:0:-3:-0.318848:-0.85791:0.4375:-0.625:-0.5:-0.875
1562063496173908:-1:1:0:-8:2:1:-2:0:-0.313477:-0.850098:0.437988:0:-1.1875:-0.875
1562063496232908:-1:-1:-2:-4:2:0:4:-2:-0.317383:-0.859863:0.44043:-0.375:-0.875:-0.375
1562063496286908:0:-1:2:0:2:0:0:-1:-0.310547:-0.856934:0.436035:-0.75:-0.3125:0.0625
1562063496333908:0:0:-2:-1:-3:-2:-3:-2:-0.3125:-0.85791:0.444336:0.3125:-0.375:-0.0625
1562063496383908:0:0:1:-7:-4:0:0:-1:-0.316895:-0.855469:0.440918:-0.75:-0.6875:-0.625
1562063496434908:-1:0:0:8:-3:-2:1:-1:-0.318359:-0.858398:0.432129:1.0625:-0.125:-0.1875
1562063496489908:-2:-2:-5:-2:1:-1:-1:-1:-0.320801:-0.857422:0.439453:0.4375:-0.375:-0.375
1562063496532908:-1:2:7:9:3:-1:-3:-1:-0.309082:-0.861816:0.441406:-0.5:-0.75:0.0625
1562063496586908:1:-2:-3:-10:-6:-2:-1:-1:-0.311035:-0.850586:0.438965:0.75:-0.125:0.125
1562063496633908:0:-1:2:3:1:0:1:1:-0.310059:-0.85791:0.445801:0.0625:0.0625:-0.125
1562063496683908:-1:-1:-4:-7:-1:-1:-1:0:-0.319336:-0.853516:0.437988:1.25:0.3125:-0.25
1562063496742908:0:0:-1:2:-4:-3:-1:0:-0.311035:-0.856445:0.445801:0.875:-0.6875:-0.125
1562063496789908:-2:0:1:-8:-2:0:0:1:-0.311523:-0.85498:0.444824:2.375:-0.6875:-0.1875
1562063496832908:1:-1:3:1:-1:3:1:-1:-0.310547:-0.853516:0.44873:1.6875:-0.9375:0.0625
1562063496893908:0:2:0:7:3:1:-2:0:-0.30957:-0.856934:0.44873:0.3125:0:0.3125
1562063496933908:-2:-1:-6:-8:1:1:1:1:-0.30957:-0.853516:0.447754:-0.0625:0.0625:0.0625
1562063496992908:-1:-2:-2:2:-8:-3:0:0:-0.310059:-0.849609:0.448242:-0.5625:0.0625:-0.1875
1562063497035908:-1:1:1:-3:5:2:1:0:-0.316895:-0.854492:0.441406:-0.5:0.0625:-0.5625
1562063497088908:0:2:1:-4:6:2:3:3:-0.310547:-0.859375:0.442871:-0.6875:0:-0.125
1562063497132908:0:0:1:8:5:-3:0:-1:-0.3125:-0.854492:0.440918:0.5:0:-0.0625
1562063497196908:0:-2:-1:6:2:2:2:2:-0.314453:-0.862793:0.444824:0.3125:0.0625:0.75
1562063497245908:1:-1:0:3:-1:-2:-1:0:-0.311035:-0.851562:0.44873:0.4375:0.0625:0.3125
1562063497297908:2:-1:-1:-3:1:1:1:1:-0.307129:-0.852539:0.45166:-0.75:-0.3125:0.5625
1562063497335908:0:0:7:44:-1:-4:-2:-1:-0.316406:-0.856934:0.447754:0.4375:0.4375:0.3125
1562063497395908:0:-1:2:5:-2:-3:-2:-2:-0.311523:-0.855957:0.447754:0.3125:0.125:0.1875
1562063497448908:-2:1:3:7:-1:0:-1:-2:-0.317383:-0.855469:0.443359:0.4375:-0.25:0.3125
1562063497495908:-1:-3:-6:-16:-2:0:2:1:-0.312012:-0.852051:0.452637:-1.1875:-0.625:0.625
1562063497545908:1:0:-2:-4:-2:-1:-2:-1:-0.309082:-0.857422:0.436035:1.5625:0.5:0.3125
1562063497597908:1:0:-1:-10:-6:0:0:0:-0.308105:-0.865234:0.438965:-1:-0.375:0.1875
1562063497651908:-1:-1:-6:-12:-2:-1:-1:-1:-0.317871:-0.844238:0.444824:0.9375:-0.25:0.25
1562063497695908:-2:-3:-2:-6:-1:1:-1:-2:-0.312988:-0.857422:0.446289:-0.0625:-0.9375:0.25
1562063497748908:-1:1:3:22:5:-1:2:0:-0.312012:-0.856445:0.444824:0.1875:-0.5:-0.1875
1562063497796908:2:2:-3:-11:-2:-2:-1:-1:-0.307617:-0.85791:0.443848:-0.5625:-0.3125:-0.25
1562063497845908:-2:-2:-2:-3:0:0:-1:0:-0.313477:-0.854492:0.441406:0.5:0.125:-0.25
1562063497897908:-1:-1:-2:-7:2:0:0:-1:-0.310059:-0.856934:0.44873:-0.375:-0.375:0.5
1562063497951908:-1:1:-1:-4:-5:1:1:0:-0.317383:-0.850586:0.44873:0.625:-0.4375:0.5625
1562063497995908:-2:-2:-3:-8:-6:0:0:0:-0.309082:-0.85791:0.443848:-0.75:-0.4375:0
1562063498048908:-1:1:1:9:6:-3:-2:-2:-0.314453:-0.846191:0.446289:-0.3125:-0.125:-0.0625
1562063498099908:-2:-2:-4:-1:1:1:-1:-3:-0.313477:-0.858887:0.44043:-1.6875:-0.8125:0.125
1562063498154908:1:-2:0:11:0:-1:-1:-1:-0.312012:-0.85498:0.447266:0.0625:-0.8125:0.0625
1562063498198908:0:1:2:12:1:1:-2:0:-0.305664:-0.853027:0.445801:-1.25:-1.1875:-0.0625
1562063498251908:-2:-1:-2:-1:0:1:0:-1:-0.313477:-0.858887:0.449707:0.1875:-0.6875:0.125
1562063498295908:1:-2:-1:-10:-2:0:0:-2:-0.30957:-0.855469:0.446777:-1.0625:-0.25:0.0625
1562063498355908:0:0:-5:-9:-1:2:1:0:-0.314453:-0.850098:0.447266:-0.8125:-0.1875:-0.0625
1562063498399908:0:-1:-2:-28:-8:0:1:2:-0.3125:-0.856445:0.442871:-1.25:-0.375:0.25
1562063498453908:-11:-1:2:1:0:0:3:-5:-0.307617:-0.865234:0.437988:-1.6875:0.1875:-0.1875
1562063498498908:-2:7:5:6:7:2:-27:50:-0.327637:-0.855957:0.498047:-5.875:0.5625:4.25
1562063498557908:-2:14:-16:-8:-5:11:74:-93:-0.343262:-0.777344:0.455566:-24.75:53.875:4.25
1562063498597908:42:43:31:18:17:5:-37:39:-0.381348:-0.955566:0.161133:-57.25:14.1875:-4.0625
1562063498658908:-73:-39:-5:2:-5:-1:11:-72:-0.361328:-0.848633:0.456543:53.3125:-12.0625:44.875
1562063498708908:24:-55:-14:-6:-4:-34:-128:99:-0.416504:-0.787109:0.485352:6.8125:11.25:12.125
1562063498760908:56:-31:10:8:10:18:64:-17:-0.412109:-0.812012:0.422363:-20.375:3.25:-1.1875
1562063498798908:-27:-14:-10:-6:-4:-3:-27:-32:-0.364258:-0.938965:0.386719:-1.8125:6.75:5
1562063498860908:41:30:-12:-10:-4:-5:-19:1:-0.33252:-0.893555:0.384277:-13.4375:-6.75:-6.4375
1562063498910908:-12:5:4:3:-3:-1:25:14:-0.330566:-0.819336:0.402344:7.0625:-2.6875:-7.625
1562063498962908:15:11:24:46:7:4:4:5:-0.352051:-0.844238:0.443848:-13.3125:-0.375:-28.25
1562063499000908:15:1:0:-11:-12:-4:-3:-1:-0.334961:-0.907227:0.434082:3.1875:9.625:-21
1562063499060908:11:-7:-2:-47:14:5:-3:7:-0.385742:-0.882812:0.298828:16:-4.375:9.25
1562063499113908:15:5:2:19:1:-2:-5:36:-0.347168:-0.86084:0.402344:15.1875:-13.625:-14.1875
1562063499161908:-6:-1:-3:36:-3:-1:-12:-6:-0.309082:-0.815918:0.416016:4.625:-11:-18.875
1562063499210908:-8:-1:-1:23:-8:-3:-2:-5:-0.283203:-0.962402:0.416504:-13.8125:-11.875:-10.9375
1562063499261908:1:-4:-4:-69:-1:-2:-3:-4:-0.289551:-0.871582:0.391113:0.875:-10.4375:3.0625
1562063499316908:-3:-2:0:17:4:1:-4:-2:-0.299805:-0.891602:0.447266:10.75:-2.5:5.625
1562063499360908:1:3:3:34:8:4:-1:2:-0.305176:-0.789551:0.445801:10.0625:-1.375:-1.125
1562063499413908:1:2:2:29:0:0:2:-4:-0.276367:-0.926758:0.427734:-5.125:3.0625:-5.375
1562063499461908:-1:-2:-1:19:-7:-5:-1:1:-0.289551:-0.874512:0.40625:5.125:2.125:-1.9375
1562063499510908:-2:-2:-2:-10:0:-4:-2:-3:-0.293457:-0.896484:0.418945:-5.0625:-3:-0.875
1562063499570908:-1:-1:2:3:2:5:11:0:-0.288574:-0.876465:0.428223:-0.125:-0.625:1.875
1562063499616908:2:2:0:-10:2:1:0:4:-0.286621:-0.872559:0.419434:-3.6875:0.0625:0.875
1562063499660908:0:-2:-5:-5:4:0:2:-1:-0.279297:-0.883789:0.410156:1.125:-0.1875:0.8125
1562063499720908:-2:-3:-4:9:1:-3:-1:-2:-0.294434:-0.865723:0.418945:0.875:-1.0625:-1.125
1562063499761908:-2:-2:-3:-3:-1:0:-1:-13:-0.285645:-0.887207:0.424316:0.3125:-1.6875:-0.5
1562063499819908:1:2:5:-2:-2:-1:0:0:-0.291504:-0.871582:0.418945:1.5:0.0625:0.75
1562063499862908:0:-1:-1:8:1:1:0:-1:-0.284668:-0.883789:0.424316:0:2.125:0.5
1562063499916908:0:-1:1:1:3:2:-1:5:-0.290039:-0.878418:0.420898:-0.125:0.6875:0.6875
1562063499960908:-1:-1:0:5:0:-2:-3:-3:-0.291992:-0.869141:0.418457:0.375:1.5625:-0.0625
1562063500020908:-1:-2:8:31:-4:-3:-3:-2:-0.291992:-0.870117:0.42334:1.0625:0:-0.1875
1562063500073908:0:-1:-1:-2:1:0:-2:-2:-0.285156:-0.881348:0.417969:-0.125:-0.375:-0.1875
1562063500123908:-2:-2:-2:-5:0:1:-1:-1:-0.287598:-0.876953:0.42041:-0.4375:-1.1875:0.4375
1562063500163908:0:-1:2:-2:3:4:-1:-1:-0.288574:-0.868164:0.417969:1.375:-0.3125:0.8125
1562063500223908:0:-1:-1:0:3:1:2:2:-0.292969:-0.882324:0.414551:-0.125:-0.25:0.25
1562063500276908:1:0:-3:-9:-3:-1:-1:1:-0.289062:-0.876465:0.415039:3.1875:0.25:1.0625
1562063500322908:-1:0:1:7:1:0:0:-1:-0.290527:-0.873047:0.42041:-0.75:-0.4375:-0.4375
1562063500373908:-3:-2:-2:-3:-5:-4:-1:0:-0.297363:-0.872559:0.419922:0.875:-0.1875:-0.4375
1562063500423908:-2:-2:-1:-4:-2:-1:-1:-3:-0.291016:-0.874023:0.418457:0:-0.5:-0.3125
1562063500479908:2:0:1:1:-3:-1:0:5:-0.28418:-0.878418:0.41748:-0.375:-0.5:-0.25
1562063500522908:0:-2:-1:0:0:0:-1:-17:-0.285156:-0.880371:0.420898:-0.375:-0.625:-0.1875
1562063500576908:-2:0:0:-3:-3:-3:-3:-2:-0.288086:-0.879395:0.420898:-0.0625:-0.5625:0
1562063500623908:0:1:2:0:0:2:0:2:-0.288574:-0.864746:0.424805:1.4375:-0.0625:0.3125
1562063500673908:0:-2:-5:5:-5:-1:-2:0:-0.282715:-0.880371:0.422852:0.5:1.3125:0.1875
1562063500733908:-2:-2:-1:1:-2:-2:-1:-1:-0.287598:-0.871094:0.434082:1.75:1.1875:0.375
1562063500778908:-1:-1:2:4:-1:-2:0:0:-0.293945:-0.875:0.42041:0.3125:0.75:0.5625
1562063500822908:1:-1:1:-3:-1:2:1:1:-0.288086:-0.876953:0.421387:0.6875:1.375:0.875
1562063500882908:-4:-1:-8:-3:-1:-1:-1:-3:-0.29541:-0.867676:0.424805:0.375:0.9375:0.5
1562063500924908:2:2:5:-1:0:0:0:2:-0.294434:-0.869141:0.42627:0.125:0.1875:0.5625
1562063500982908:-2:0:0:5:2:1:3:0:-0.290039:-0.869629:0.421875:1.1875:-0.375:0.375
1562063501025908:1:-1:3:12:-1:-2:-3:-8:-0.291504:-0.875:0.428223:0.6875:-0.4375:1.125
1562063501084908:0:2:3:3:3:3:1:1:-0.287598:-0.871094:0.431152:1.125:1.3125:1.6875
1562063501122908:-1:0:-4:-2:1:-1:0:0:-0.293457:-0.877441:0.427734:0.5625:2.5625:1.375
1562063501182908:0:-2:-2:-2:0:1:-1:1:-0.306152:-0.864258:0.418945:-1.375:1.8125:0.3125
1562063501223908:-2:-1:-2:-1:-7:-1:0:-1:-0.309082:-0.871094:0.41748:-1.75:-0.5:-0.1875
1562063501283908:1:2:-1:-3:-2:-1:-1:-1:-0.296875:-0.870117:0.42041:-0.5:-1.125:-0.4375
1562063501325908:-2:0:1:7:2:0:1:-1:-0.290527:-0.871582:0.41748:-0.625:-0.625:-1.5
1562063501385908:-1:-3:-7:-7:-2:-1:0:-3:-0.294922:-0.870117:0.419922:-1.0625:-0.75:-1.3125
1562063501422908:-1:-1:-2:-5:-1:-2:-1:-1:-0.293945:-0.876465:0.425781:-1.875:0:-1.8125
1562063501483908:-2:-2:2:4:-6:-3:-2:0:-0.297363:-0.867188:0.422852:-1.625:-1.0625:-1.1875
1562063501527908:-1:-1:1:11:2:-2:0:-1:-0.289062:-0.872559:0.42041:-0.375:-1.8125:-0.625
1562063501580908:-2:1:-4:-1:0:0:-1:0:-0.285156:-0.874512:0.430664:-1.75:-1.6875:-1.375
1562063501633908:1:1:-1:-9:-3:2:2:0:-0.284668:-0.879883:0.418457:-1.1875:-0.75:-0.5625
1562063501685908:-1:-1:-4:-3:-2:-2:-1:-2:-0.287109:-0.881348:0.413574:-2.125:0.25:0.125
1562063501725908:-2:-2:-2:1:4:-1:-2:-3:-0.284668:-0.874512:0.417969:0.8125:1.5:0.9375
1562063501786908:0:-2:1:5:-2:-2:-1:-1:-0.28418:-0.881836:0.415039:-0.1875:1.3125:0.875
1562063501828908:0:-1:-4:-1:-3:0:-1:-2:-0.289062:-0.880859:0.413086:-0.3125:1.25:0.8125
1562063501887908:-1:-1:2:22:0:-1:-2:0:-0.291016:-0.880859:0.410156:0.125:0.4375:1.25
1562063501940908:0:-2:-3:-9:-1:0:0:0:-0.296387:-0.878418:0.414062:0.9375:1.3125:1.3125
1562063501984908:2:3:1:-7:-3:0:1:1:-0.287598:-0.87207:0.415039:0.5625:0.25:1.375
1562063502040908:-1:-2:-2:-7:1:1:-1:-1:-0.289062:-0.875488:0.415039:1.4375:0.5:0.875
1562063502086908:-1:2:3:-2:-1:-1:2:0:-0.292969:-0.878418:0.41748:1.4375:1:1.1875
1562063502127908:0:0:-2:-4:-2:-3:-2:0:-0.294922:-0.878906:0.419922:0.0625:1.25:0.9375
1562063502187908:-1:-3:-1:-1:-3:-3:0:-2:-0.301758:-0.868652:0.42041:0.5:1.5625:1.4375
1562063502240908:-1:-1:4:4:2:-2:-2:0:-0.300293:-0.874512:0.411133:-1.5:1.0625:1.0625
1562063502285908:-2:-3:-2:-5:-5:-3:-1:0:-0.300293:-0.873535:0.413086:-2.0625:0.25:1.125
1562063502340908:1:0:-3:7:0:1:1:0:-0.302734:-0.876465:0.420898:-1.75:-0.0625:1.3125
1562063502386908:0:0:-1:0:-1:0:-1:-1:-0.302734:-0.874023:0.413086:-0.1875:1:1.5
1562063502443908:0:1:-2:-4:-1:0:-1:-1:-0.302734:-0.871582:0.407715:-0.75:0.125:1.375
1562063502487908:1:1:-1:8:2:-2:-1:-1:-0.305176:-0.875488:0.408691:0.375:0.4375:0.875
1562063502539908:-1:-2:-8:-9:-3:-1:0:1:-0.308105:-0.866211:0.417969:-0.25:-0.0625:0.6875
1562063502584908:-1:0:0:-7:-1:0:-1:-1:-0.308594:-0.87207:0.409668:0.3125:0.5625:0.6875
1562063502646908:-3:-3:0:-5:0:-1:0:-2:-0.298828:-0.876953:0.411133:-0.625:0.5625:0.125
1562063502690908:-2:0:-1:5:-1:-1:0:-2:-0.303223:-0.87793:0.409668:-0.8125:0.5:0.5
1562063502742908:1:1:0:-4:-5:-2:0:0:-0.3125:-0.871094:0.40918:-0.625:0.375:0.6875
1562063502788908:-2:-4:-4:15:3:-3:-1:-2:-0.307617:-0.870117:0.412598:0.875:0:0.5625
1562063502847908:-2:-2:-3:2:2:0:0:-1:-0.308105:-0.871094:0.408691:-0.1875:0.125:0.625
1562063502900908:-1:-2:-3:4:0:0:1:0:-0.311523:-0.87793:0.416504:0.1875:0.3125:0.75
1562063502948908:0:1:6:1:0:0:-2:-3:-0.312012:-0.872559:0.408691:-0.3125:-0.5625:1
1562063502990908:-2:-2:-3:2:-1:-1:-1:-1:-0.310059:-0.875977:0.406738:-0.125:-0.1875:1.0625
1562063503049908:-1:-3:-4:4:4:1:3:2:-0.309082:-0.875:0.412109:0.125:0.5:1.1875
1562063503087908:-1:1:-1:-1:2:-1:0:-1:-0.307617:-0.875:0.404785:-1:0:1.1875
1562063503148908:0:1:1:-5:-1:-1:0:1:-0.314941:-0.866699:0.413574:-0.375:-0.4375:0.875
1562063503200908:0:-1:2:-7:-1:0:0:0:-0.316895:-0.868164:0.407715:0.875:0.0625:1.25
1562063503248908:-2:0:1:1:1:1:-1:-2:-0.309082:-0.87207:0.410645:0.8125:-0.125:1
1562063503289908:0:1:1:1:0:0:2:1:-0.30957:-0.873535:0.415039:0.4375:0.3125:0.5
1562063503350908:-3:-2:-2:-5:0:1:1:-1:-0.311523:-0.866699:0.412598:1.625:-0.1875:0.375
1562063503402908:-2:-1:1:4:2:-1:-1:-1:-0.317383:-0.876953:0.405762:0.8125:0.3125:-0.3125
1562063503447908:0:1:-1:-5:-2:0:-2:2:-0.319824:-0.861816:0.413574:-0.0625:-0.625:0
1562063503499908:1:0:-2:-8:-5:1:2:0:-0.312012:-0.874512:0.419434:0.3125:-0.25:0.5
1562063503552908:0:-3:-4:-5:1:3:0:-1:-0.30957:-0.870605:0.408203:-1.3125:0.0625:1
1562063503604908:-1:-1:-2:-6:4:0:2:0:-0.30957:-0.871582:0.407227:0.375:0.625:1.0625
1562063503650908:-2:-1:-2:7:19:-1:-2:-2:-0.320312:-0.879395:0.411621:-2.125:0.8125:1.4375
1562063503702908:-2:-1:-2:-4:-2:-3:-1:-1:-0.321777:-0.862793:0.396973:-5.125:-0.1875:3.6875
1562063503750908:-1:-3:0:6:-8:-3:-2:-3:-0.319824:-0.875977:0.408203:0.875:0:3.0625
1562063503808908:-2:0:-3:9:0:0:-1:-2:-0.317871:-0.863281:0.408203:-0.9375:-0.125:2.875
1562063503853908:-2:-2:-4:1:1:-3:0:1:-0.325195:-0.878418:0.399414:-0.8125:0.375:1.625
1562063503905908:0:-1:1:6:2:-2:-1:0:-0.327148:-0.865723:0.401367:0.875:-0.3125:0.75
1562063503949908:-1:-2:-2:1:-3:-2:-1:-2:-0.328125:-0.873047:0.406738:0.5625:-0.75:0.5625
1562063504010908:0:1:-1:-5:1:2:3:0:-0.32373:-0.869141:0.406738:0.5:-0.5:0.5625
1562063504050908:0:3:7:1:2:1:1:4:-0.322266:-0.870605:0.408691:0.75:0:0.625
1562063504110908:1:1:-4:-5:1:1:-2:-1:-0.326172:-0.876953:0.407227:0.875:-1.25:1.1875
1562063504152908:0:-1:0:-1:-2:-1:-2:-2:-0.328125:-0.873047:0.413086:-0.4375:-0.8125:1.75
1562063504204908:0:0:-2:6:-1:0:-4:-1:-0.32959:-0.861328:0.408203:1.875:-0.5:2.25
1562063504249908:1:1:2:8:4:-1:0:-2:-0.333008:-0.868164:0.40625:0:-0.3125:1.375
1562063504309908:1:-2:1:-1:-7:-2:-2:-2:-0.329102:-0.86084:0.407227:-0.4375:-1.125:0.8125
1562063504363908:2:-1:-5:8:1:-1:1:1:-0.331055:-0.868652:0.413574:-1.1875:-0.3125:0.375
1562063504410908:-1:-1:-4:-1:-5:0:1:2:-0.33252:-0.869629:0.413086:0.375:0:0.3125
1562063504453908:-2:-2:-1:-2:-3:-2:1:-2:-0.335449:-0.872559:0.410645:-1.1875:0.0625:0.1875
1562063504512908:-1:-1:-2:0:3:2:-1:2:-0.325195:-0.868164:0.406738:-0.5625:-0.25:0.375
1562063504565908:-5:1:1:-6:1:-2:-8:-12:-0.334961:-0.85791:0.419434:-0.3125:-0.3125:-0.125
1562063504612908:16:18:11:5:0:-4:-1:28:-0.330078:-0.855469:0.424805:-2.1875:0.5625:0.625
1562063504655908:3:12:5:-3:-3:3:66:13:-0.321289:-0.868652:0.398926:-2.875:7.3125:-1.9375
1562063504716908:-16:-19:-2:-1:-5:-4:-50:27:-0.34375:-0.873535:0.396484:-0.5625:12.25:4.5
1562063504767908:56:13:-7:-11:-7:-4:-16:-23:-0.318359:-0.898926:0.368164:-10.4375:4.6875:9.5625
1562063504813908:23:15:3:1:12:37:127:-39:-0.296387:-0.925781:0.378418:10.5:-2.5625:16.8125
1562063504865908:-18:3:7:2:6:10:-5:-37:-0.419922:-0.843262:0.415039:17.9375:-4.375:20.1875
1562063504913908:-20:8:8:1:0:-8:-65:68:-0.415039:-0.779785:0.447266:6.4375:3.5625:9.125
1562063504956908:49:-14:-10:3:1:-5:-55:8:-0.373535:-0.820312:0.438965:-13.625:-1.25:-4.5625
1562063505016908:-128:-4:1:2:1:5:60:9:-0.342773:-0.861328:0.400879:-5.125:1.0625:-1.5625
1562063505067908:0:-6:-4:-4:-2:-6:-75:4:-0.386719:-0.822266:0.40625:-0.5:2:-2.5625
1562063505113908:17:9:4:4:5:-2:-16:20:-0.35791:-0.898926:0.41748:0.1875:1.6875:-0.75
1562063505165908:8:-4:-1:-4:0:0:-11:11:-0.368164:-0.776855:0.408691:-4.8125:0.9375:-13.1875
1562063505213908:3:3:1:26:22:1:5:3:-0.345703:-0.867676:0.429688:-13.375:4.1875:-12.375
1562063505272908:0:-5:-15:-74:-7:7:-6:-1:-0.344238:-0.924805:0.351074:-20.5625:0.5625:1.625
1562063505314908:-2:-1:-4:-43:-6:0:-2:-2:-0.427734:-0.865723:0.32373:18.0625:-12.75:4.9375
1562063505367908:0:0:3:16:-1:1:-2:0:-0.36377:-0.842285:0.414062:17.875:-20.75:-1
1562063505412908:0:-1:1:11:2:0:1:-3:-0.303223:-0.734375:0.452148:3.5:-5.4375:-17.8125
1562063505457908:0:0:5:13:7:3:-5:-10:-0.283203:-0.958984:0.429199:-16.1875:0.6875:-18.5625
1562063505517908:-1:-2:1:-21:0:-2:-1:0:-0.313477:-0.874023:0.391113:2.125:2.0625:-3.5625
1562063505569908:0:-3:-1:10:4:0:-3:-2:-0.327637:-0.87793:0.423828:0.6875:0.5:-0.125
1562063505615908:0:0:-5:-17:-2:-1:-5:-2:-0.325684:-0.865723:0.419434:1.8125:-0.5:0.75
1562063505676908:0:0:-3:-8:-9:2:-1:2:-0.320312:-0.865723:0.407715:-2.0625:0.4375:0
1562063505715908:-1:-2:-3:1:-1:-3:-1:0:-0.312988:-0.870117:0.420898:0.375:0.125:-1.5
1562063505775908:0:-3:-3:2:-1:-2:-1:-1:-0.307617:-0.877441:0.418945:0.125:0.25:-1
1562063505817908:-1:-3:-1:7:1:-4:-7:-12:-0.316895:-0.863281:0.42041:2:0.875:0.4375
1562063505877908:0:-2:-2:21:4:-1:0:1:-0.325195:-0.876953:0.414062:-1.0625:-0.1875:-0.25
1562063505915908:-1:-3:-4:3:3:3:0:2:-0.316895:-0.869629:0.414062:2.125:-0.875:-0.0625
1562063505974908:-1:-2:-1:0:-3:-1:-2:0:-0.308105:-0.845703:0.40918:-0.75:-2.0625:-1.6875
1562063506027908:-2:0:-2:-4:1:-1:0:0:-0.308594:-0.875977:0.42041:0.875:-0.625:-0.625
1562063506076908:-1:-2:-6:1:-1:-1:1:-1:-0.312988:-0.862305:0.417969:-2:-1:-0.1875
1562063506133908:0:0:-1:1:2:-1:0:-1:-0.310059:-0.879395:0.419922:-0.125:0.125:0.0625
1562063506177908:0:-1:-5:0:-2:1:0:0:-0.314941:-0.862793:0.419922:0.5:0.5625:-0.25
1562063506230908:-3:-2:0:-7:-1:0:1:0:-0.313965:-0.874512:0.419434:-3.125:0.25:-0.8125
1562063506274908:-1:-4:-2:0:-3:-3:-2:-1:-0.312012:-0.866211:0.410156:1.8125:0.25:0.1875
1562063506327908:1:2:4:11:3:1:2:-1:-0.30957:-0.865234:0.416016:-1.9375:-0.625:0.125
1562063506381908:-2:-3:-9:-6:4:-3:0:-2:-0.31543:-0.865234:0.410156:-0.25:-0.9375:1
1562063506432908:0:-1:-1:-8:-3:-5:-8:6:-0.310059:-0.871094:0.406738:-1.625:-0.0625:1.125
1562063506478908:-2:0:-2:-8:-3:-2:-4:-2:-0.310059:-0.874512:0.40625:0:-0.0625:1.125
1562063506529908:-1:1:2:-1:-6:-2:-1:0:-0.315918:-0.866211:0.400391:-1:-0.0625:1.375
1562063506577908:-1:0:-2:-11:4:-3:-2:-3:-0.317871:-0.875:0.413574:0.9375:0.1875:1.1875
1562063506638908:0:0:-1:-2:-2:-1:0:0:-0.3125:-0.864746:0.41748:0.3125:0.0625:0.875
1562063506680908:-1:-2:-2:0:-2:-1:-1:-2:-0.316895:-0.871094:0.411133:0.375:0.9375:0.5625
1562063506732908:-1:-1:1:3:2:0:-1:0:-0.31543:-0.865723:0.408691:0.5:0.5625:0.125
1562063506777908:-1:-1:-3:0:-3:1:2:1:-0.315918:-0.867676:0.406738:0.0625:0.75:0
1562063506837908:0:1:2:-14:1:0:1:-1:-0.321777:-0.870117:0.403809:1:0.3125:0.375
1562063506889908:1:-3:-3:1:3:0:-2:-2:-0.319824:-0.869629:0.411133:1.0625:-0.3125:0.5625
1562063506938908:-2:-1:-2:-16:-5:-2:-4:-3:-0.314453:-0.874512:0.42041:1.25:0.375:0.75
1562063506980908:-1:0:1:-8:-1:-4:-4:-2:-0.323242:-0.869141:0.412109:-0.4375:0.1875:0.125
1562063507040908:-2:-2:2:16:4:-1:-1:0:-0.322266:-0.873535:0.414062:0.25:-0.375:0
1562063507078908:-1:-3:-4:3:0:0:1:-1:-0.318848:-0.868652:0.413574:-0.1875:-0.1875:0.125
1562063507138908:-1:1:2:-8:2:0:0:-1:-0.322754:-0.861816:0.418945:1:-0.5:0.3125
1562063507189908:-1:-2:-2:-6:-3:0:-1:-2:-0.314453:-0.871094:0.409668:-0.1875:0.375:-0.25
1562063507235908:-1:-2:-4:-7:1:1:-1:-2:-0.319336:-0.864746:0.411621:0.0625:-0.1875:-0.6875
1562063507280908:-2:-2:-2:3:-1:-3:-2:-1:-0.318848:-0.871094:0.415039:1.125:0.25:0.25
1562063507339908:-2:-3:-5:-8:1:0:-1:-1:-0.317871:-0.870605:0.411621:-0.625:-0.25:0.375
1562063507391908:-3:0:-1:2:-8:-1:0:0:-0.319336:-0.863281:0.416992:0.8125:0.5625:-0.1875
1562063507440908:1:-1:-2:-4:1:-1:-1:-1:-0.319336:-0.875:0.417969:0.5:0.125:0.875
1562063507482908:-2:-2:0:8:-3:0:-1:1:-0.316895:-0.861328:0.415527:-0.25:0.375:-0.125
1562063507543908:-3:-1:-1:-1:-2:1:1:-1:-0.317383:-0.87207:0.41748:1.1875:0.1875:0.4375
1562063507595908:-1:0:2:-33:-11:-6:-3:-1:-0.318359:-0.864746:0.419434:-0.75:-0.4375:-0.0625
1562063507643908:-2:-3:-3:2:-1:-4:-3:-2:-0.318359:-0.870605:0.413086:0.25:-0.625:0.4375
1562063507692908:1:-1:-5:-2:-1:0:0:-1:-0.322266:-0.865723:0.41748:0:-0.125:0.375
1562063507748908:1:1:3:13:-2:-5:-1:-2:-0.318359:-0.871094:0.419922:-0.25:0.1875:0.5
1562063507797908:-1:-3:-4:-2:-1:0:-2:-2:-0.324707:-0.865234:0.413086:0.375:-0.375:0.875
1562063507846908:2:0:0:-5:1:1:3:4:-0.317871:-0.868164:0.419434:-0.25:-0.1875:0.625
1562063507895908:1:0:2:-1:3:-1:0:-1:-0.318848:-0.865234:0.419434:0.125:0.0625:0.5
1562063507942908:-1:-2:0:4:-3:0:-1:-2:-0.320312:-0.864746:0.41748:0:0.1875:0.0625
1562063507992908:-1:-2:0:0:0:-2:0:1:-0.317871:-0.864746:0.42041:0.625:-0.0625:0.0625
1562063508052908:-1:-5:-7:-5:-6:-3:-5:-3:-0.324707:-0.864258:0.415527:-0.875:-0.125:0.25
1562063508097908:1:2:1:0:0:-1:1:2:-0.316406:-0.866699:0.412109:0.25:-0.3125:0.9375
1562063508144908:-2:-2:-3:5:2:0:1:-1:-0.313965:-0.867188:0.414551:-1.25:-0.125:0.3125
1562063508194908:1:1:0:-4:0:1:1:0:-0.318848:-0.870117:0.416992:-1.375:-0.1875:0.75
1562063508242908:-1:2:-3:-2:2:-2:-2:-1:-0.327148:-0.856445:0.418457:-0.0625:-0.625:1.5625
1562063508301908:0:-1:-3:3:-3:-2:-2:0:-0.319336:-0.871094:0.410645:-0.1875:0:1.5
1562063508347908:-1:-2:-1:0:0:0:-1:-2:-0.321289:-0.864746:0.41748:-0.75:-0.0625:0.8125
1562063508397908:-1:-2:1:-2:-1:-2:-2:-2:-0.324707:-0.865723:0.40918:-0.375:0.5625:0.375
1562063508445908:1:0:-6:4:2:1:0:0:-0.324707:-0.862793:0.414062:-0.25:-0.75:1.375
1562063508494908:-3:-7:-8:-9:-6:-4:-1:-1:-0.324707:-0.870605:0.414062:-0.25:0.0625:1.3125
1562063508546908:-1:-3:-4:9:-2:0:0:-2:-0.328613:-0.869141:0.416016:-1.3125:0.1875:1.9375
1562063508601908:1:1:5:0:1:1:-1:-3:-0.330078:-0.859863:0.425293:-1.25:1.75:1.5
1562063508648908:15:3:0:-1:-1:-1:6:-2:-0.330566:-0.85791:0.427734:-6.8125:2.625:0.9375
1562063508697908:13:0:5:-1:1:5:7:38:-0.32666:-0.859863:0.417969:-9.1875:5.75:1.3125
1562063508746908:10:-60:-19:-1:2:-2:-39:-7:-0.341309:-0.844238:0.413574:-1.875:22.75:3.125
1562063508794908:45:18:9:7:3:-7:-61:-19:-0.36377:-0.921387:0.328613:-16:20.4375:7.0625
1562063508846908:-82:11:2:-2:-2:-8:40:1:-0.327637:-0.919922:0.310059:-3.375:6.4375:19.125
1562063508900908:79:12:5:-5:-4:-8:-64:-95:-0.430664:-0.800781:0.375:28:-0.75:35.4375
1562063508948908:62:-8:-8:6:0:-17:-69:69:-0.428711:-0.773438:0.392578:3.5:-4.0625:17.6875
1562063508997908:-1:-40:-7:0:-5:-14:-28:12:-0.438965:-0.830078:0.403809:-5.1875:-9:7.75
1562063509056908:22:19:11:2:1:9:27:-21:-0.407227:-0.836914:0.398926:-0.5625:-8.625:3.125
1562063509105908:-13:8:-6:0:3:5:22:14:-0.371582:-0.825195:0.407715:-13.75:-7.6875:-21.625
1562063509155908:0:3:2:46:6:2:11:-1:-0.379883:-0.916504:0.444336:-3:6.3125:-23.5
1562063509207908:-2:1:7:35:30:4:11:3:-0.331055:-0.865723:0.377441:-19.8125:8.1875:-9.0625
1562063509248908:-6:-3:-2:22:0:3:0:0:-0.385254:-0.942383:0.306641:-0.75:0.1875:-0.9375
1562063509307908:-4:-4:-1:-2:-2:-5:9:-13:-0.402344:-0.857422:0.351562:6.875:-13.625:2.125
1562063509357908:1:2:-2:-12:-6:-3:-9:1:-0.39502:-0.810059:0.398438:23.5:-14.4375:-4.1875
1562063509407908:-1:-1:1:1:7:1:4:2:-0.321777:-0.94043:0.431152:-15.1875:-6.625:-15.8125
1562063509446908:0:0:3:7:-10:-2:4:4:-0.312012:-0.875488:0.382324:9.5:0.75:-5.5625
1562063509507908:-1:-1:-5:5:1:-3:0:-1:-0.339355:-0.899902:0.392578:1.5:0:3.125
1562063509559908:0:1:-1:2:-3:-3:-14:-3:-0.349121:-0.84668:0.408203:1.5:-0.4375:2.8125
1562063509608908:1:-1:-4:10:-6:-4:0:10:-0.36084:-0.853516:0.402832:-1.6875:-1.375:0.4375
1562063509656908:0:0:-4:-11:1:0:8:3:-0.349121:-0.871094:0.407715:-0.125:-3.5625:-2.125
1562063509702908:-1:1:2:1:-7:-1:0:2:-0.333984:-0.856934:0.408691:1.4375:-3.0625:-1.625
1562063509746908:0:0:-2:6:0:-4:-1:0:-0.332031:-0.873535:0.402344:-0.8125:-2.1875:-1.0625
1562063509807908:0:0:1:8:7:0:0:0:-0.335938:-0.854492:0.413086:5.5625:-0.25:0.3125
1562063509861908:1:1:3:-1:-1:-1:-1:-1:-0.341309:-0.87793:0.412109:-2.625:0.125:-0.9375
1562063509907908:-2:-3:1:10:0:-3:-4:-4:-0.337402:-0.86084:0.402832:0.625:0.9375:-0.25
1562063509957908:1:0:1:-7:1:0:3:0:-0.334961:-0.868164:0.408203:-1.3125:-0.0625:-0.5
1562063510010908:-2:1:1:8:-6:1:0:-2:-0.337891:-0.861816:0.412109:0.4375:-0.1875:-0.75
1562063510062908:0:1:2:4:-1:-2:-1:-1:-0.334473:-0.875:0.411133:0.125:0.625:-0.25
1562063510109908:-2:-2:-2:-5:-3:0:-1:-3:-0.338867:-0.859863:0.416016:0.5:1.5:0
1562063510159908:-1:-1:3:19:-10:-6:-3:-1:-0.333496:-0.870117:0.411621:-1.125:1.1875:0.4375
1562063510210908:0:0:-2:-10:4:4:0:0:-0.336426:-0.864258:0.401855:-0.25:0.625:1.375
1562063510249908:0:1:-1:-10:6:1:1:0:-0.334961:-0.865723:0.40625:-0.375:1.75:0.0625
1562063510309908:-1:1:1:14:0:-1:-1:-2:-0.339844:-0.871094:0.411621:0:0.625:0.75
1562063510362908:-1:0:3:-10:-2:1:-1:0:-0.345703:-0.860352:0.404297:0.5:0.625:0.3125
1562063510410908:1:1:0:-6:-1:-1:-1:0:-0.339844:-0.869629:0.402344:1.5:0.375:0.5
1562063510459908:-1:-2:-5:-8:-4:-1:0:-2:-0.350098:-0.855957:0.407227:1.0625:0.1875:0.125
1562063510512908:-3:-3:-1:-14:-5:-2:-1:-1:-0.339844:-0.868164:0.40332:1.375:0.375:0.5625
1562063510566908:0:0:1:19:-13:-2:1:-1:-0.333008:-0.862793:0.411621:0.9375:0.625:1
1562063510609908:0:-1:0:3:2:0:-1:0:-0.340332:-0.863281:0.410645:1.3125:1:1.4375
1562063510662908:0:-1:-3:-3:4:2:1:0:-0.34375:-0.867676:0.405762:1.6875:1.75:1.25
1562063510710908:0:-1:0:1:-2:2:0:0:-0.350098:-0.858887:0.404297:0.9375:1.0625:1.0625
1562063510759908:-1:-1:1:24:-4:-1:0:-1:-0.350098:-0.858398:0.399902:0.625:0.6875:0.4375
1562063510811908:0:-2:1:1:6:1:0:0:-0.347656:-0.859375:0.407227:2:-0.25:0.3125
1562063510866908:0:-3:-2:-8:-1:-1:-1:-3:-0.338379:-0.854492:0.408691:0.25:-1.0625:0
1562063510909908:0:-1:0:-1:-2:-2:-1:-1:-0.350586:-0.862793:0.410156:1.6875:-0.375:0.625
1562063510962908:-1:-3:-3:10:-1:-4:0:-1:-0.344727:-0.85791:0.405273:-0.75:-0.0625:-0.625
1562063511010908:0:1:1:1:-3:1:1:0:-0.34375:-0.85791:0.413086:0:-0.625:-0.4375
1562063511059908:0:-1:0:-11:-1:-2:-2:-2:-0.34668:-0.854492:0.41748:0:-0.3125:-0.25
1562063511119908:2:3:3:-1:2:2:3:3:-0.344238:-0.864746:0.408691:-0.75:-0.1875:-0.5
1562063511164908:-1:-1:-1:-7:-1:-2:-1:-3:-0.336426:-0.857422:0.417969:-0.125:0:0
1562063511209908:0:1:2:5:-1:-1:1:1:-0.342773:-0.864258:0.408691:-0.5:0.25:0
1562063511269908:-1:0:0:9:-1:-1:-1:-1:-0.343262:-0.854004:0.411621:0.3125:-0.0625:0.25
1562063511313908:0:0:3:-4:-4:1:2:2:-0.34375:-0.863281:0.416016:0.1875:0.1875:0.4375
